Number of k-points   125
Number of spin components 1
Number of electrons  24.00    
Number of eigenvalues     12
Fermi energy (in atomic units)    -0.021081
Unit cell vectors
    5.609357    0.000000    0.000000
    0.000000   16.828016    0.000000
    0.000000    0.000000    5.654516
K-point     1 -0.45000000 -0.45000000 -0.15000000  0.00800000
Spin component 1
   -0.33623046
   -0.33048465
   -0.28494131
   -0.27948687
   -0.23254501
   -0.21747614
   -0.18891881
   -0.17556273
   -0.08268191
   -0.07237167
   -0.07125730
   -0.06501265
K-point     2 -0.45000000 -0.45000000 -0.05000000  0.00800000
Spin component 1
   -0.34680262
   -0.34097387
   -0.29494438
   -0.28936170
   -0.24074067
   -0.22509294
   -0.19503644
   -0.18069957
   -0.07705493
   -0.06438499
   -0.05552769
   -0.04615890
K-point     3 -0.45000000 -0.35000000  0.45000000  0.00800000
Spin component 1
   -0.24879147
   -0.23508128
   -0.20415149
   -0.20147666
   -0.19361944
   -0.19116817
   -0.18406601
   -0.16521549
   -0.16521541
   -0.16456875
   -0.16291976
   -0.15816280
K-point     4 -0.45000000 -0.25000000  0.05000000  0.00800000
Spin component 1
   -0.35500092
   -0.32592849
   -0.30281267
   -0.27499183
   -0.26975441
   -0.22194628
   -0.19203982
   -0.15091506
   -0.10688140
   -0.07865113
   -0.04535645
   -0.03265146
K-point     5 -0.45000000 -0.25000000  0.45000000  0.00800000
Spin component 1
   -0.25162478
   -0.22896813
   -0.20641786
   -0.20370571
   -0.19165910
   -0.18918669
   -0.18686365
   -0.16774724
   -0.16670075
   -0.16415394
   -0.16098632
   -0.15676790
K-point     6 -0.45000000 -0.15000000 -0.25000000  0.00800000
Spin component 1
   -0.32540735
   -0.28682619
   -0.27469891
   -0.25534245
   -0.23908537
   -0.21094101
   -0.16185369
   -0.13693739
   -0.12442246
   -0.11477377
   -0.09880652
   -0.08115792
K-point     7 -0.45000000 -0.05000000 -0.45000000  0.00800000
Spin component 1
   -0.25449133
   -0.21496227
   -0.20873223
   -0.20732785
   -0.20598388
   -0.17982376
   -0.17786572
   -0.17529538
   -0.17359167
   -0.16547253
   -0.15622397
   -0.15556667
K-point     8 -0.45000000 -0.05000000 -0.05000000  0.00800000
Spin component 1
   -0.35852861
   -0.30651077
   -0.30620220
   -0.29523643
   -0.25653625
   -0.24587433
   -0.15759395
   -0.14031338
   -0.12077216
   -0.10607822
   -0.03669540
   -0.02674324
K-point     9 -0.45000000 -0.05000000  0.25000000  0.00800000
Spin component 1
   -0.32653493
   -0.27721234
   -0.27575180
   -0.26669519
   -0.23038685
   -0.22097256
   -0.14856819
   -0.13600378
   -0.12838228
   -0.12096189
   -0.09860294
   -0.08009060
K-point    10 -0.45000000  0.15000000 -0.05000000  0.00800000
Spin component 1
   -0.35735039
   -0.31675360
   -0.30507071
   -0.28296783
   -0.26625565
   -0.23432162
   -0.17490538
   -0.13579204
   -0.12331521
   -0.09195024
   -0.03961617
   -0.02871778
K-point    11 -0.45000000  0.15000000  0.35000000  0.00800000
Spin component 1
   -0.29409740
   -0.25811454
   -0.24530235
   -0.22970903
   -0.21397143
   -0.19104669
   -0.15578654
   -0.15193962
   -0.14754363
   -0.14412755
   -0.13453022
   -0.12065001
K-point    12 -0.45000000  0.25000000  0.35000000  0.00800000
Spin component 1
   -0.29197193
   -0.26609714
   -0.24339840
   -0.22073751
   -0.21910341
   -0.18308468
   -0.16514309
   -0.15113739
   -0.15096404
   -0.14473299
   -0.12997018
   -0.12096565
K-point    13 -0.45000000  0.45000000 -0.45000000  0.00800000
Spin component 1
   -0.24505897
   -0.24046964
   -0.20121199
   -0.19858981
   -0.19766903
   -0.19512011
   -0.17695863
   -0.17059805
   -0.16378409
   -0.16356401
   -0.16142090
   -0.15977944
K-point    14 -0.35000000 -0.25000000 -0.45000000  0.00800000
Spin component 1
   -0.29035448
   -0.26460940
   -0.23902960
   -0.21808945
   -0.21681898
   -0.18078016
   -0.16550645
   -0.15822692
   -0.15252300
   -0.15025438
   -0.13262765
   -0.12500099
K-point    15 -0.35000000 -0.25000000  0.25000000  0.00800000
Spin component 1
   -0.36516336
   -0.33622359
   -0.28057714
   -0.21569446
   -0.20479132
   -0.19346461
   -0.15633051
   -0.12576348
   -0.12339430
   -0.11918800
   -0.11452902
   -0.07506354
K-point    16 -0.35000000 -0.25000000  0.35000000  0.00800000
Spin component 1
   -0.33274741
   -0.30497558
   -0.25260308
   -0.18972479
   -0.18510563
   -0.18070706
   -0.17251366
   -0.16482495
   -0.15035818
   -0.14691456
   -0.12467517
   -0.09555819
K-point    17 -0.35000000 -0.15000000 -0.25000000  0.00800000
Spin component 1
   -0.36750580
   -0.32710524
   -0.29362311
   -0.21755982
   -0.18841744
   -0.18681902
   -0.16423009
   -0.14044293
   -0.11985478
   -0.11952262
   -0.11446183
   -0.07079367
K-point    18 -0.35000000 -0.15000000 -0.15000000  0.00800000
Spin component 1
   -0.38941674
   -0.34808088
   -0.31355882
   -0.23598488
   -0.20208816
   -0.20149947
   -0.17434119
   -0.14798425
   -0.10263813
   -0.08016741
   -0.06162337
   -0.05825292
K-point    19 -0.35000000 -0.15000000 -0.05000000  0.00800000
Spin component 1
   -0.40043872
   -0.35868542
   -0.32370679
   -0.24543415
   -0.20954294
   -0.20936275
   -0.18029598
   -0.15281260
   -0.09620135
   -0.06310271
   -0.05338628
   -0.02274319
K-point    20 -0.35000000 -0.05000000 -0.45000000  0.00800000
Spin component 1
   -0.29353466
   -0.24797176
   -0.24184798
   -0.23855637
   -0.20318798
   -0.19580322
   -0.15959783
   -0.14872784
   -0.14872761
   -0.14846196
   -0.14209539
   -0.12469981
K-point    21 -0.35000000 -0.05000000 -0.35000000  0.00800000
Spin component 1
   -0.33613816
   -0.28665169
   -0.27610867
   -0.19202365
   -0.18288385
   -0.16303077
   -0.15837494
   -0.15837434
   -0.15657388
   -0.15275703
   -0.14603332
   -0.09256498
K-point    22 -0.35000000 -0.05000000 -0.25000000  0.00800000
Spin component 1
   -0.36867924
   -0.31693999
   -0.30576403
   -0.21849855
   -0.17964283
   -0.17206244
   -0.17206160
   -0.15597938
   -0.12020490
   -0.11679494
   -0.11515377
   -0.06864948
K-point    23 -0.35000000 -0.05000000 -0.15000000  0.00800000
Spin component 1
   -0.39061455
   -0.33762874
   -0.32610909
   -0.23700915
   -0.19309835
   -0.18401210
   -0.18401114
   -0.16589246
   -0.09411599
   -0.08659214
   -0.06130881
   -0.05506921
K-point    24 -0.35000000 -0.05000000 -0.05000000  0.00800000
Spin component 1
   -0.40164601
   -0.34810728
   -0.33643744
   -0.24649415
   -0.20045133
   -0.19073861
   -0.19073759
   -0.17174951
   -0.08446781
   -0.07337397
   -0.04961810
   -0.02164543
K-point    25 -0.35000000  0.15000000  0.45000000  0.00800000
Spin component 1
   -0.29247184
   -0.25668489
   -0.24090392
   -0.22855134
   -0.21024286
   -0.18826378
   -0.15913010
   -0.15658083
   -0.15003819
   -0.14904753
   -0.13674283
   -0.12478372
K-point    26 -0.35000000  0.25000000 -0.05000000  0.00800000
Spin component 1
   -0.39802931
   -0.36814458
   -0.30995707
   -0.24331708
   -0.22797384
   -0.21741797
   -0.16921454
   -0.13421847
   -0.10836822
   -0.06070200
   -0.05381191
   -0.02495358
K-point    27 -0.35000000  0.35000000 -0.05000000  0.00800000
Spin component 1
   -0.39441924
   -0.37646486
   -0.29523614
   -0.24587370
   -0.24015319
   -0.22456004
   -0.15759465
   -0.12077251
   -0.11631299
   -0.07117364
   -0.04562719
   -0.02831167
K-point    28 -0.35000000  0.35000000  0.25000000  0.00800000
Spin component 1
   -0.36165728
   -0.34426004
   -0.26669493
   -0.22097200
   -0.21291932
   -0.19947354
   -0.14856870
   -0.12838247
   -0.11827140
   -0.11514682
   -0.11224945
   -0.08144296
K-point    29 -0.35000000  0.45000000 -0.45000000  0.00800000
Spin component 1
   -0.28300709
   -0.27782210
   -0.23257465
   -0.22807296
   -0.19645763
   -0.18569903
   -0.16694414
   -0.16108255
   -0.15536460
   -0.15361480
   -0.12756607
   -0.12623455
K-point    30 -0.35000000  0.45000000 -0.05000000  0.00800000
Spin component 1
   -0.38961563
   -0.38362785
   -0.27959927
   -0.26311693
   -0.23595760
   -0.23075067
   -0.14554982
   -0.13322340
   -0.09951058
   -0.08428914
   -0.03863152
   -0.03286256
K-point    31 -0.35000000  0.45000000  0.25000000  0.00800000
Spin component 1
   -0.35699476
   -0.35119055
   -0.25206153
   -0.23677993
   -0.20926098
   -0.20476152
   -0.14116920
   -0.13436803
   -0.11719596
   -0.11610028
   -0.10019661
   -0.08986402
K-point    32 -0.25000000 -0.25000000 -0.45000000  0.00800000
Spin component 1
   -0.32060120
   -0.29310741
   -0.26726189
   -0.24210104
   -0.24149093
   -0.19713105
   -0.17580586
   -0.14775765
   -0.11869524
   -0.11869488
   -0.11273469
   -0.09225821
K-point    33 -0.25000000 -0.05000000  0.45000000  0.00800000
Spin component 1
   -0.32396399
   -0.27500620
   -0.27038075
   -0.26460922
   -0.22592956
   -0.21681884
   -0.15025381
   -0.13860145
   -0.13262761
   -0.12679375
   -0.11258796
   -0.08960068
K-point    34 -0.25000000  0.05000000  0.05000000  0.00800000
Spin component 1
   -0.43457651
   -0.38006427
   -0.36814436
   -0.21741671
   -0.19735364
   -0.18304841
   -0.14250131
   -0.13421986
   -0.06253289
   -0.05381218
   -0.04696400
   -0.02106578
K-point    35 -0.25000000  0.05000000  0.15000000  0.00800000
Spin component 1
   -0.42335278
   -0.36924488
   -0.35743451
   -0.20913645
   -0.18964066
   -0.17475774
   -0.13780245
   -0.13058397
   -0.07486997
   -0.07243606
   -0.07219975
   -0.06246118
K-point    36 -0.25000000  0.05000000  0.25000000  0.00800000
Spin component 1
   -0.40099899
   -0.34779243
   -0.33622338
   -0.19346350
   -0.17527786
   -0.15891257
   -0.14019558
   -0.13047218
   -0.12576449
   -0.11750634
   -0.11452904
   -0.06469002
K-point    37 -0.25000000  0.05000000  0.35000000  0.00800000
Spin component 1
   -0.36773670
   -0.31611313
   -0.30497538
   -0.20826644
   -0.17251275
   -0.17166979
   -0.16482487
   -0.15675946
   -0.13719323
   -0.12492062
   -0.12467572
   -0.07298865
K-point    38 -0.25000000  0.15000000 -0.35000000  0.00800000
Spin component 1
   -0.36656661
   -0.32624989
   -0.29288349
   -0.20736275
   -0.18859101
   -0.17825992
   -0.15791137
   -0.14161105
   -0.13672241
   -0.12589139
   -0.12535555
   -0.07498952
K-point    39 -0.25000000  0.15000000 -0.25000000  0.00800000
Spin component 1
   -0.39979792
   -0.35828900
   -0.32361631
   -0.21161561
   -0.15816403
   -0.15731043
   -0.13953625
   -0.13523750
   -0.12131549
   -0.12084178
   -0.11212881
   -0.06783435
K-point    40 -0.25000000  0.15000000 -0.15000000  0.00800000
Spin component 1
   -0.42213551
   -0.37994507
   -0.34454207
   -0.22839372
   -0.17386492
   -0.17014809
   -0.14462694
   -0.12311452
   -0.07826676
   -0.07198315
   -0.07088522
   -0.06645093
K-point    41 -0.25000000  0.15000000 -0.05000000  0.00800000
Spin component 1
   -0.43335061
   -0.39085627
   -0.35512360
   -0.23715335
   -0.18209234
   -0.17719475
   -0.15019568
   -0.12544448
   -0.06695034
   -0.06145556
   -0.04098567
   -0.02148723
K-point    42 -0.25000000  0.25000000 -0.35000000  0.00800000
Spin component 1
   -0.36422734
   -0.33534493
   -0.27989898
   -0.20556246
   -0.20473992
   -0.18444495
   -0.15113682
   -0.13580738
   -0.12737550
   -0.12737452
   -0.12709748
   -0.07899162
K-point    43 -0.25000000  0.25000000 -0.25000000  0.00800000
Spin component 1
   -0.39739804
   -0.36768329
   -0.31001778
   -0.22951553
   -0.15668162
   -0.13987805
   -0.13987669
   -0.13823635
   -0.12432642
   -0.11733628
   -0.11050509
   -0.07400963
K-point    44 -0.25000000  0.25000000 -0.15000000  0.00800000
Spin component 1
   -0.41970040
   -0.38951122
   -0.33060833
   -0.24722598
   -0.17208928
   -0.15094225
   -0.15094067
   -0.11554135
   -0.08264231
   -0.07418356
   -0.07158419
   -0.07008496
K-point    45 -0.25000000  0.25000000 -0.05000000  0.00800000
Spin component 1
   -0.43089991
   -0.40049712
   -0.34103890
   -0.25639217
   -0.18019066
   -0.15721430
   -0.15721263
   -0.11629040
   -0.07545142
   -0.06978172
   -0.03590057
   -0.02236013
K-point    46 -0.25000000  0.35000000 -0.45000000  0.00800000
Spin component 1
   -0.31725199
   -0.30070586
   -0.26416272
   -0.24899017
   -0.22896775
   -0.18918614
   -0.18686338
   -0.15676763
   -0.11622455
   -0.11301237
   -0.11073712
   -0.09506024
K-point    47 -0.25000000  0.35000000 -0.35000000  0.00800000
Spin component 1
   -0.36072578
   -0.34336233
   -0.26609669
   -0.22073681
   -0.20289792
   -0.19009380
   -0.14473292
   -0.13450276
   -0.12997032
   -0.12915947
   -0.11434562
   -0.08499616
K-point    48 -0.25000000  0.35000000 -0.25000000  0.00800000
Spin component 1
   -0.39380516
   -0.37595101
   -0.29548326
   -0.24698459
   -0.15449372
   -0.14424145
   -0.13633687
   -0.12776843
   -0.12332713
   -0.11404382
   -0.10982428
   -0.08299452
K-point    49 -0.25000000  0.35000000 -0.15000000  0.00800000
Spin component 1
   -0.41605474
   -0.39791820
   -0.31567438
   -0.26548151
   -0.16944294
   -0.15665379
   -0.13237865
   -0.10804725
   -0.08794246
   -0.08521020
   -0.07106582
   -0.06986707
K-point    50 -0.25000000  0.35000000 -0.05000000  0.00800000
Spin component 1
   -0.42723015
   -0.40896944
   -0.32592798
   -0.27499097
   -0.17735557
   -0.16349335
   -0.13776347
   -0.10688243
   -0.08746853
   -0.07865177
   -0.03169693
   -0.02373965
K-point    51 -0.25000000  0.45000000 -0.35000000  0.00800000
Spin component 1
   -0.35607146
   -0.35027843
   -0.25155752
   -0.23639488
   -0.19939422
   -0.19510480
   -0.13893012
   -0.13394893
   -0.13287848
   -0.13105203
   -0.10279966
   -0.09296432
K-point    52 -0.25000000  0.45000000 -0.25000000  0.00800000
Spin component 1
   -0.38902764
   -0.38307187
   -0.28007670
   -0.26387707
   -0.15164497
   -0.14820031
   -0.13389883
   -0.13100634
   -0.11161216
   -0.11018660
   -0.10805148
   -0.09446702
K-point    53 -0.25000000  0.45000000 -0.15000000  0.00800000
Spin component 1
   -0.41120244
   -0.40515520
   -0.29979474
   -0.28303726
   -0.16596176
   -0.16168322
   -0.11488994
   -0.10082161
   -0.09897896
   -0.09405867
   -0.07051951
   -0.07007045
K-point    54 -0.25000000  0.45000000 -0.05000000  0.00800000
Spin component 1
   -0.42234827
   -0.41625789
   -0.30984033
   -0.29283771
   -0.17360764
   -0.16897340
   -0.11928844
   -0.10231064
   -0.09737005
   -0.08790285
   -0.02831999
   -0.02569698
K-point    55 -0.15000000  0.45000000 -0.35000000  0.00800000
Spin component 1
   -0.37726211
   -0.37134438
   -0.26939353
   -0.25343824
   -0.21637459
   -0.21156681
   -0.13956019
   -0.13078701
   -0.10269887
   -0.09045012
   -0.08997768
   -0.08997641
K-point    56  0.05000000 -0.35000000 -0.35000000  0.00800000
Spin component 1
   -0.39275328
   -0.37485598
   -0.29409673
   -0.24530140
   -0.22927207
   -0.21420718
   -0.15193933
   -0.12064981
   -0.11972985
   -0.07783970
   -0.07090169
   -0.06368148
K-point    57  0.05000000 -0.35000000 -0.25000000  0.00800000
Spin component 1
   -0.42649707
   -0.40825693
   -0.32540664
   -0.27469788
   -0.15777233
   -0.14513651
   -0.13909614
   -0.09880655
   -0.09021920
   -0.08115829
   -0.06957857
   -0.06795952
K-point    58  0.05000000 -0.35000000 -0.15000000  0.00800000
Spin component 1
   -0.44913670
   -0.43069581
   -0.34663751
   -0.29484531
   -0.15360829
   -0.10059050
   -0.08368678
   -0.07604835
   -0.07539344
   -0.06922555
   -0.05429876
   -0.05319558
K-point    59  0.05000000 -0.35000000 -0.05000000  0.00800000
Spin component 1
   -0.46049309
   -0.44195631
   -0.35734965
   -0.30506961
   -0.16130094
   -0.10638092
   -0.08004781
   -0.07092249
   -0.03961756
   -0.02871866
   -0.02338856
   -0.02177456
K-point    60  0.05000000 -0.35000000  0.45000000  0.00800000
Spin component 1
   -0.34821096
   -0.33085555
   -0.29339355
   -0.27691286
   -0.25352994
   -0.20795583
   -0.20521820
   -0.16502262
   -0.09891905
   -0.08131961
   -0.06722999
   -0.06212460
K-point    61  0.05000000 -0.25000000 -0.45000000  0.00800000
Spin component 1
   -0.35170832
   -0.32284177
   -0.29673147
   -0.26933988
   -0.26736694
   -0.21778051
   -0.19181745
   -0.15133931
   -0.11262213
   -0.09047036
   -0.06055140
   -0.05844929
K-point    62  0.05000000 -0.25000000 -0.35000000  0.00800000
Spin component 1
   -0.39635391
   -0.36656640
   -0.30869811
   -0.23234720
   -0.22768941
   -0.20736261
   -0.16235913
   -0.13672097
   -0.11088313
   -0.07499017
   -0.06837143
   -0.06253247
K-point    63  0.05000000 -0.25000000 -0.25000000  0.00800000
Spin component 1
   -0.43016190
   -0.39979770
   -0.34046883
   -0.25621457
   -0.16039761
   -0.15816230
   -0.13953617
   -0.10569166
   -0.07867141
   -0.07678913
   -0.07013029
   -0.06783581
K-point    64  0.05000000 -0.25000000 -0.15000000  0.00800000
Spin component 1
   -0.45283991
   -0.42213529
   -0.36196285
   -0.27587454
   -0.17386304
   -0.08773653
   -0.08550672
   -0.07755429
   -0.07198318
   -0.06645295
   -0.05615734
   -0.05430756
K-point    65  0.05000000 -0.25000000 -0.05000000  0.00800000
Spin component 1
   -0.46421301
   -0.43335038
   -0.37279532
   -0.28587832
   -0.18209039
   -0.09291356
   -0.08197614
   -0.06695262
   -0.04403719
   -0.02613843
   -0.02388702
   -0.02148741
K-point    66  0.05000000 -0.15000000 -0.45000000  0.00800000
Spin component 1
   -0.35404340
   -0.31375015
   -0.29896397
   -0.28036932
   -0.26077950
   -0.22970831
   -0.17547199
   -0.13784846
   -0.12742625
   -0.10087603
   -0.05604644
   -0.05604592
K-point    67  0.05000000 -0.15000000 -0.35000000  0.00800000
Spin component 1
   -0.39875706
   -0.35714527
   -0.32235252
   -0.23440556
   -0.20961724
   -0.19968621
   -0.17247888
   -0.15453079
   -0.10178642
   -0.08010594
   -0.06182845
   -0.06182700
K-point    68  0.05000000 -0.15000000 -0.25000000  0.00800000
Spin component 1
   -0.43260932
   -0.39017267
   -0.35451661
   -0.23711930
   -0.17782196
   -0.16216513
   -0.13337865
   -0.11276956
   -0.07333646
   -0.07054053
   -0.07053842
   -0.06816666
K-point    69  0.05000000 -0.15000000 -0.15000000  0.00800000
Spin component 1
   -0.45531242
   -0.41238952
   -0.37623357
   -0.25621014
   -0.19456600
   -0.08674622
   -0.07858613
   -0.07858363
   -0.06845334
   -0.06361173
   -0.05864276
   -0.05603395
K-point    70  0.05000000 -0.15000000 -0.05000000  0.00800000
Spin component 1
   -0.46669683
   -0.42354950
   -0.38717026
   -0.26595787
   -0.20325988
   -0.08327781
   -0.08327512
   -0.06264274
   -0.04866554
   -0.02425248
   -0.02414879
   -0.02149006
K-point    71  0.05000000 -0.05000000 -0.45000000  0.00800000
Spin component 1
   -0.35521385
   -0.30361268
   -0.30008110
   -0.29247146
   -0.25128190
   -0.24090359
   -0.15912913
   -0.14302569
   -0.12478320
   -0.11238408
   -0.05486012
   -0.05378012
K-point    72  0.05000000 -0.05000000 -0.35000000  0.00800000
Spin component 1
   -0.39996086
   -0.34661487
   -0.33500561
   -0.23543695
   -0.19125693
   -0.19125018
   -0.18215347
   -0.17280487
   -0.09354513
   -0.08629294
   -0.06149442
   -0.05848215
K-point    73  0.05000000 -0.05000000 -0.25000000  0.00800000
Spin component 1
   -0.43383364
   -0.37940091
   -0.36750536
   -0.21755843
   -0.19771572
   -0.16305413
   -0.12677474
   -0.11985469
   -0.07079457
   -0.07075845
   -0.06910306
   -0.06632504
K-point    74  0.05000000 -0.05000000 -0.15000000  0.00800000
Spin component 1
   -0.45654902
   -0.40147747
   -0.38941630
   -0.23598341
   -0.21536388
   -0.08737314
   -0.07910680
   -0.07380825
   -0.06494894
   -0.06162355
   -0.06083323
   -0.05825446
K-point    75  0.05000000 -0.05000000 -0.05000000  0.00800000
Spin component 1
   -0.46793847
   -0.41257394
   -0.40043827
   -0.24543264
   -0.22446314
   -0.08393357
   -0.07822683
   -0.05808853
   -0.05338815
   -0.02444428
   -0.02274365
   -0.02188141
K-point    76  0.05000000  0.45000000 -0.45000000  0.00800000
Spin component 1
   -0.34355956
   -0.33776836
   -0.28896657
   -0.28346405
   -0.23894609
   -0.22371327
   -0.19214028
   -0.17868860
   -0.08661379
   -0.07597251
   -0.07352665
   -0.06713335
K-point    77  0.05000000  0.45000000 -0.35000000  0.00800000
Spin component 1
   -0.38796188
   -0.38199245
   -0.27860925
   -0.26231395
   -0.22520496
   -0.22017173
   -0.14138923
   -0.13088936
   -0.10396089
   -0.08984557
   -0.06773749
   -0.06537419
K-point    78  0.05000000  0.45000000 -0.25000000  0.00800000
Spin component 1
   -0.42161786
   -0.41553432
   -0.30937880
   -0.29245102
   -0.15432392
   -0.15009172
   -0.12105521
   -0.10456378
   -0.09230342
   -0.08636603
   -0.06896081
   -0.06838031
K-point    79  0.05000000  0.45000000 -0.15000000  0.00800000
Spin component 1
   -0.44420503
   -0.43805439
   -0.33030416
   -0.31301590
   -0.13425242
   -0.11635407
   -0.08134564
   -0.07855122
   -0.07411163
   -0.07181085
   -0.05316460
   -0.05279649
K-point    80  0.05000000  0.45000000 -0.05000000  0.00800000
Spin component 1
   -0.45553751
   -0.44935647
   -0.34087792
   -0.32342950
   -0.14134529
   -0.12280112
   -0.07753007
   -0.07446998
   -0.03552814
   -0.03186980
   -0.02281799
   -0.02225080
K-point    81  0.15000000 -0.45000000 -0.45000000  0.00800000
Spin component 1
   -0.33320965
   -0.32750185
   -0.27919242
   -0.27382053
   -0.23094556
   -0.21628270
   -0.18633673
   -0.17388231
   -0.09146033
   -0.08697954
   -0.08276845
   -0.08276798
K-point    82  0.15000000 -0.45000000 -0.25000000  0.00800000
Spin component 1
   -0.41069622
   -0.40465359
   -0.29948221
   -0.28277946
   -0.14713199
   -0.14330142
   -0.11617078
   -0.10059713
   -0.10059531
   -0.09864953
   -0.09714445
   -0.09379451
K-point    83  0.15000000 -0.45000000 -0.15000000  0.00800000
Spin component 1
   -0.43315575
   -0.42703720
   -0.32004055
   -0.30291849
   -0.12746777
   -0.11019635
   -0.11019422
   -0.10693056
   -0.07713507
   -0.07505392
   -0.06914466
   -0.06666342
K-point    84  0.15000000 -0.45000000 -0.05000000  0.00800000
Spin component 1
   -0.44442646
   -0.43827235
   -0.33045083
   -0.31314245
   -0.13375348
   -0.11571207
   -0.11570980
   -0.11188353
   -0.05794197
   -0.05182182
   -0.02367301
   -0.02319352
K-point    85  0.15000000 -0.35000000 -0.35000000  0.00800000
Spin component 1
   -0.38200821
   -0.36427656
   -0.28459271
   -0.23683555
   -0.22027156
   -0.20588634
   -0.14865981
   -0.12256551
   -0.11712451
   -0.09138965
   -0.08980200
   -0.07931510
K-point    86  0.15000000 -0.35000000 -0.25000000  0.00800000
Spin component 1
   -0.41554369
   -0.39742651
   -0.31531882
   -0.26529038
   -0.15028452
   -0.13885745
   -0.13335119
   -0.10228688
   -0.10133491
   -0.09655883
   -0.09138725
   -0.08716900
K-point    87  0.15000000 -0.35000000 -0.15000000  0.00800000
Spin component 1
   -0.43806006
   -0.41971483
   -0.33622981
   -0.28494031
   -0.14623880
   -0.11289150
   -0.10316088
   -0.09506733
   -0.07893503
   -0.07280209
   -0.07237266
   -0.06501318
K-point    88  0.15000000 -0.35000000 -0.05000000  0.00800000
Spin component 1
   -0.44935904
   -0.43090905
   -0.34680196
   -0.29494336
   -0.15324041
   -0.11883361
   -0.10739630
   -0.09979750
   -0.06438627
   -0.04615972
   -0.02447191
   -0.02295008
K-point    89  0.15000000 -0.35000000  0.45000000  0.00800000
Spin component 1
   -0.33779739
   -0.32069390
   -0.28352055
   -0.26743383
   -0.24505845
   -0.20121126
   -0.19858940
   -0.16142043
   -0.10178426
   -0.09236050
   -0.07961173
   -0.07579757
K-point    90  0.15000000 -0.25000000 -0.35000000  0.00800000
Spin component 1
   -0.38557849
   -0.35607132
   -0.29895174
   -0.22322331
   -0.21971113
   -0.19939413
   -0.15786836
   -0.13287719
   -0.11510181
   -0.09296515
   -0.08979383
   -0.07103389
K-point    91  0.15000000 -0.25000000 -0.25000000  0.00800000
Spin component 1
   -0.41918683
   -0.38902749
   -0.33021768
   -0.24711863
   -0.15269504
   -0.15164336
   -0.13389879
   -0.10620335
   -0.10363345
   -0.09446850
   -0.08996390
   -0.07645222
K-point    92  0.15000000 -0.25000000 -0.15000000  0.00800000
Spin component 1
   -0.44174619
   -0.41120229
   -0.35143210
   -0.26619189
   -0.16595998
   -0.11495493
   -0.09898082
   -0.08280260
   -0.08035850
   -0.07621642
   -0.07051955
   -0.06422474
K-point    93  0.15000000 -0.25000000 -0.05000000  0.00800000
Spin component 1
   -0.45306438
   -0.42234812
   -0.36214140
   -0.27593878
   -0.17360579
   -0.12120508
   -0.10231268
   -0.08680081
   -0.07101886
   -0.04106478
   -0.02569712
   -0.02284782
K-point    94  0.15000000 -0.25000000  0.45000000  0.00800000
Spin component 1
   -0.34125023
   -0.31280620
   -0.28678399
   -0.26006501
   -0.25850101
   -0.21047215
   -0.18589473
   -0.14916772
   -0.11357448
   -0.09899387
   -0.07738485
   -0.07058688
K-point    95  0.15000000 -0.15000000 -0.45000000  0.00800000
Spin component 1
   -0.34355962
   -0.30387073
   -0.28896663
   -0.27117514
   -0.25176136
   -0.22183827
   -0.17053659
   -0.13735744
   -0.12660992
   -0.10689844
   -0.07597327
   -0.06713314
K-point    96  0.15000000 -0.15000000 -0.35000000  0.00800000
Spin component 1
   -0.38796195
   -0.34675298
   -0.31240076
   -0.22520502
   -0.20221758
   -0.19216117
   -0.16698544
   -0.14958741
   -0.10856825
   -0.09534613
   -0.08984707
   -0.06537304
K-point    97  0.15000000 -0.15000000 -0.25000000  0.00800000
Spin component 1
   -0.42161793
   -0.37947258
   -0.34412495
   -0.22838908
   -0.17061857
   -0.15432395
   -0.12854083
   -0.11155875
   -0.10456576
   -0.09253641
   -0.08948767
   -0.06895892
K-point    98  0.15000000 -0.15000000 -0.15000000  0.00800000
Spin component 1
   -0.44420510
   -0.40151535
   -0.36559842
   -0.24678603
   -0.18619722
   -0.11635633
   -0.09449184
   -0.08134564
   -0.08051798
   -0.07410929
   -0.06835602
   -0.06427017
K-point    99  0.15000000 -0.15000000 -0.05000000  0.00800000
Spin component 1
   -0.45553759
   -0.41259861
   -0.37642473
   -0.25623268
   -0.19439881
   -0.12280351
   -0.09670721
   -0.07769898
   -0.07752752
   -0.03661196
   -0.02744942
   -0.02281794
K-point   100  0.15000000 -0.05000000 -0.45000000  0.00800000
Spin component 1
   -0.34471383
   -0.29392233
   -0.29005890
   -0.28300678
   -0.24257388
   -0.23257438
   -0.15536377
   -0.14063068
   -0.12623420
   -0.11601961
   -0.07528783
   -0.06541555
K-point   101  0.15000000 -0.05000000 -0.35000000  0.00800000
Spin component 1
   -0.38915618
   -0.33634642
   -0.32488178
   -0.22619739
   -0.18454265
   -0.18427384
   -0.17584032
   -0.16690926
   -0.10308082
   -0.09868410
   -0.08989092
   -0.06250127
K-point   102  0.15000000 -0.05000000 -0.25000000  0.00800000
Spin component 1
   -0.42283269
   -0.36878777
   -0.35699440
   -0.20925969
   -0.18992308
   -0.15514236
   -0.12291800
   -0.11719593
   -0.10504324
   -0.09094092
   -0.08986502
   -0.06510352
K-point   103  0.15000000 -0.05000000 -0.15000000  0.00800000
Spin component 1
   -0.44543470
   -0.39067158
   -0.37869053
   -0.22685948
   -0.20658977
   -0.11706278
   -0.08981965
   -0.08510949
   -0.08184917
   -0.06958716
   -0.06648254
   -0.06506665
K-point   104  0.15000000 -0.05000000 -0.05000000  0.00800000
Spin component 1
   -0.45677449
   -0.40168212
   -0.38961526
   -0.23595618
   -0.21527425
   -0.12360622
   -0.09066426
   -0.08429085
   -0.07268894
   -0.03286298
   -0.02982144
   -0.02281765
K-point   105  0.25000000 -0.45000000  0.45000000  0.00800000
Spin component 1
   -0.31280633
   -0.30728417
   -0.26006513
   -0.25499429
   -0.21596587
   -0.20264522
   -0.17656333
   -0.16644848
   -0.11458521
   -0.11357522
   -0.10418465
   -0.09899385
K-point   106  0.25000000  0.15000000  0.45000000  0.00800000
Spin component 1
   -0.32284196
   -0.28452628
   -0.26934005
   -0.25340663
   -0.23438914
   -0.20717241
   -0.16274252
   -0.13965258
   -0.12801758
   -0.12217055
   -0.11262309
   -0.09047059
K-point   107  0.35000000 -0.45000000  0.15000000  0.00800000
Spin component 1
   -0.37869090
   -0.37275986
   -0.27022519
   -0.25410365
   -0.22686087
   -0.22186667
   -0.14307029
   -0.13242646
   -0.09874019
   -0.08510801
   -0.06743353
   -0.06506646
K-point   108  0.35000000 -0.35000000  0.15000000  0.00800000
Spin component 1
   -0.38344917
   -0.36566770
   -0.28555850
   -0.23729237
   -0.23089568
   -0.21594411
   -0.15372193
   -0.12199951
   -0.11403823
   -0.07355866
   -0.07065885
   -0.06340064
K-point   109  0.35000000 -0.25000000 -0.15000000  0.00800000
Spin component 1
   -0.38702736
   -0.35743473
   -0.30002543
   -0.23394277
   -0.21990640
   -0.20913766
   -0.16419897
   -0.13058269
   -0.11199833
   -0.07486981
   -0.06449858
   -0.06229217
K-point   110  0.35000000 -0.15000000 -0.35000000  0.00800000
Spin component 1
   -0.33500603
   -0.29629282
   -0.26473048
   -0.19125142
   -0.18215371
   -0.17148645
   -0.16781141
   -0.16067068
   -0.15406723
   -0.14945623
   -0.13473041
   -0.09354500
K-point   111  0.35000000  0.35000000 -0.45000000  0.00800000
Spin component 1
   -0.28719358
   -0.27167372
   -0.23624145
   -0.22279562
   -0.20732766
   -0.17529508
   -0.17359157
   -0.15694091
   -0.15622393
   -0.15184872
   -0.12963139
   -0.12543831
K-point   112  0.35000000  0.35000000 -0.35000000  0.00800000
Spin component 1
   -0.32936770
   -0.31265870
   -0.23982623
   -0.19897394
   -0.18747173
   -0.17858425
   -0.17696027
   -0.16884143
   -0.14746943
   -0.14533915
   -0.11601990
   -0.09869695
K-point   113  0.35000000  0.45000000 -0.35000000  0.00800000
Spin component 1
   -0.32488212
   -0.31930611
   -0.22652644
   -0.21284894
   -0.18454378
   -0.18100915
   -0.17584050
   -0.17255778
   -0.14560360
   -0.14488167
   -0.10882593
   -0.10308050
K-point   114  0.45000000 -0.45000000 -0.35000000  0.00800000
Spin component 1
   -0.28459331
   -0.27938490
   -0.23683642
   -0.23225072
   -0.19707196
   -0.18604171
   -0.16797800
   -0.16132447
   -0.14866001
   -0.14721308
   -0.12417096
   -0.12256557
K-point   115  0.45000000 -0.35000000 -0.25000000  0.00800000
Spin component 1
   -0.31978928
   -0.30314091
   -0.26945226
   -0.25401955
   -0.23047086
   -0.18954573
   -0.18954545
   -0.15672285
   -0.10603714
   -0.10503226
   -0.10005397
   -0.08670388
K-point   116  0.45000000 -0.35000000 -0.15000000  0.00800000
Spin component 1
   -0.34084657
   -0.32362654
   -0.28932999
   -0.27299096
   -0.24698174
   -0.20189834
   -0.20189801
   -0.16199148
   -0.09465900
   -0.07891181
   -0.06393118
   -0.06014585
K-point   117  0.45000000 -0.15000000  0.15000000  0.00800000
Spin component 1
   -0.34663824
   -0.30665609
   -0.29484639
   -0.27356373
   -0.25699731
   -0.22619079
   -0.16982749
   -0.13498868
   -0.12255099
   -0.09825339
   -0.05429827
   -0.05319460
K-point   118  0.45000000 -0.05000000 -0.15000000  0.00800000
Spin component 1
   -0.34780020
   -0.29660511
   -0.29595453
   -0.28555879
   -0.24758322
   -0.23729298
   -0.15372129
   -0.13787060
   -0.12199921
   -0.10967568
   -0.05316623
   -0.05102832
K-point   119  0.45000000  0.05000000 -0.35000000  0.00800000
Spin component 1
   -0.29516268
   -0.24933096
   -0.24625805
   -0.23982647
   -0.20667101
   -0.19897440
   -0.15235904
   -0.14746916
   -0.14533911
   -0.14425851
   -0.14035805
   -0.12051741
K-point   120  0.45000000  0.15000000 -0.45000000  0.00800000
Spin component 1
   -0.25353054
   -0.22222308
   -0.20795665
   -0.20521869
   -0.19949119
   -0.18452534
   -0.18236536
   -0.17118554
   -0.16978418
   -0.16502320
   -0.15799510
   -0.15582273
K-point   121  0.45000000  0.25000000 -0.25000000  0.00800000
Spin component 1
   -0.32315612
   -0.29548375
   -0.27259449
   -0.24698538
   -0.24323550
   -0.20041682
   -0.17559901
   -0.14645752
   -0.11404324
   -0.10982407
   -0.09925911
   -0.08333012
K-point   122  0.45000000  0.25000000 -0.15000000  0.00800000
Spin component 1
   -0.34431887
   -0.31567489
   -0.29263549
   -0.26548235
   -0.26068338
   -0.21436016
   -0.18595592
   -0.14839747
   -0.10804636
   -0.08794197
   -0.05750948
   -0.05660269
K-point   123  0.45000000  0.35000000 -0.05000000  0.00800000
Spin component 1
   -0.35148202
   -0.33400992
   -0.29943330
   -0.28270291
   -0.25565403
   -0.20881961
   -0.20881927
   -0.16594306
   -0.09134429
   -0.06643036
   -0.05370515
   -0.03849329
K-point   124  0.45000000  0.35000000  0.35000000  0.00800000
Spin component 1
   -0.28879707
   -0.27320511
   -0.24056693
   -0.22685953
   -0.20816099
   -0.17531427
   -0.17531406
   -0.15559235
   -0.15001311
   -0.14583644
   -0.12657258
   -0.12155524
K-point   125  0.45000000  0.45000000 -0.25000000  0.00800000
Spin component 1
   -0.31531945
   -0.30976210
   -0.26529133
   -0.26013631
   -0.21716785
   -0.20346901
   -0.17850213
   -0.16748694
   -0.10326560
   -0.10133479
   -0.09747759
   -0.09138677
