Number of k-points   125
Number of spin components 1
Number of electrons  24.00    
Number of eigenvalues     12
Fermi energy (in atomic units)    -0.056926
Unit cell vectors
    5.807479    0.000000    0.000000
    0.000000   17.422342    0.000000
    0.000000    0.000000    5.833483
K-point     1 -0.45000000 -0.45000000 -0.15000000  0.00800000
Spin component 1
   -0.33700715
   -0.33179485
   -0.29051832
   -0.28560626
   -0.24354552
   -0.23009096
   -0.20472559
   -0.19293061
   -0.11175792
   -0.10283824
   -0.10152223
   -0.09595731
K-point     2 -0.45000000 -0.45000000 -0.05000000  0.00800000
Spin component 1
   -0.34669248
   -0.34139234
   -0.29961186
   -0.29456674
   -0.25081577
   -0.23679286
   -0.20997206
   -0.19724595
   -0.10660301
   -0.09574740
   -0.08800229
   -0.07995831
K-point     3 -0.45000000 -0.25000000  0.05000000  0.00800000
Spin component 1
   -0.35414971
   -0.32773080
   -0.30672799
   -0.28159663
   -0.27691320
   -0.23396753
   -0.20729894
   -0.17093192
   -0.13237191
   -0.10791895
   -0.07954853
   -0.06836766
K-point     4 -0.45000000 -0.25000000  0.35000000  0.00800000
Spin component 1
   -0.29647855
   -0.27336158
   -0.25282604
   -0.23289847
   -0.23176581
   -0.20019849
   -0.18464647
   -0.17231594
   -0.16989068
   -0.16555353
   -0.15346502
   -0.14433650
K-point     5 -0.45000000 -0.15000000 -0.25000000  0.00800000
Spin component 1
   -0.32699717
   -0.29220594
   -0.28112709
   -0.26397902
   -0.24933647
   -0.22440631
   -0.18126111
   -0.15957750
   -0.14852648
   -0.13986466
   -0.12411575
   -0.10998282
K-point     6 -0.45000000 -0.05000000 -0.05000000  0.00800000
Spin component 1
   -0.35735940
   -0.31012639
   -0.30979586
   -0.29992021
   -0.26498040
   -0.25540186
   -0.17678024
   -0.16157061
   -0.14449784
   -0.13168715
   -0.07222293
   -0.06329806
K-point     7 -0.45000000 -0.05000000  0.25000000  0.00800000
Spin component 1
   -0.32801426
   -0.28356960
   -0.28207142
   -0.27413810
   -0.24161240
   -0.23327063
   -0.16963767
   -0.15865461
   -0.15204893
   -0.14545013
   -0.12386122
   -0.10899495
K-point     8 -0.45000000  0.05000000 -0.35000000  0.00800000
Spin component 1
   -0.29933739
   -0.25846109
   -0.25535208
   -0.25004129
   -0.22062525
   -0.21393884
   -0.17080150
   -0.16920233
   -0.16704029
   -0.16580728
   -0.16290232
   -0.14373819
K-point     9 -0.45000000  0.15000000 -0.05000000  0.00800000
Spin component 1
   -0.35628847
   -0.31940529
   -0.30877252
   -0.28883345
   -0.27372659
   -0.24504259
   -0.19208725
   -0.15764413
   -0.14668476
   -0.11942351
   -0.07469169
   -0.06499350
K-point    10 -0.45000000  0.15000000  0.35000000  0.00800000
Spin component 1
   -0.29838421
   -0.26626015
   -0.25450663
   -0.24110423
   -0.22698431
   -0.20707628
   -0.17649051
   -0.17048860
   -0.16918815
   -0.16536756
   -0.15766061
   -0.14392351
K-point    11 -0.45000000  0.15000000  0.45000000  0.00800000
Spin component 1
   -0.26149724
   -0.23408304
   -0.22092859
   -0.21792220
   -0.21443222
   -0.20107450
   -0.19877206
   -0.18999900
   -0.18853744
   -0.18275711
   -0.17868265
   -0.17612899
K-point    12 -0.45000000  0.25000000  0.45000000  0.00800000
Spin component 1
   -0.25981822
   -0.23995768
   -0.21961117
   -0.21663707
   -0.20771199
   -0.20498426
   -0.20249174
   -0.18716513
   -0.18608005
   -0.18208208
   -0.18137957
   -0.17667603
K-point    13 -0.45000000  0.45000000 -0.35000000  0.00800000
Spin component 1
   -0.28987375
   -0.28521625
   -0.24703901
   -0.24300075
   -0.21245789
   -0.20283431
   -0.18716719
   -0.18141573
   -0.16809459
   -0.16708906
   -0.14785886
   -0.14618140
K-point    14 -0.35000000 -0.25000000  0.25000000  0.00800000
Spin component 1
   -0.36313903
   -0.33686764
   -0.28660994
   -0.22821204
   -0.21889974
   -0.20866972
   -0.17635686
   -0.14951591
   -0.14759119
   -0.14091193
   -0.13831467
   -0.10554564
K-point    15 -0.35000000 -0.25000000  0.35000000  0.00800000
Spin component 1
   -0.33335749
   -0.30831525
   -0.26140460
   -0.20506013
   -0.20176637
   -0.19534802
   -0.19035717
   -0.18225204
   -0.17166237
   -0.16815527
   -0.14903894
   -0.12310261
K-point    16 -0.35000000 -0.15000000 -0.25000000  0.00800000
Spin component 1
   -0.36526841
   -0.32860757
   -0.29835731
   -0.22985850
   -0.20440997
   -0.20285805
   -0.18320222
   -0.16230114
   -0.14402612
   -0.14136751
   -0.13864438
   -0.10183130
K-point    17 -0.35000000 -0.15000000 -0.15000000  0.00800000
Spin component 1
   -0.38544823
   -0.34780441
   -0.31647934
   -0.24641145
   -0.21631209
   -0.21572702
   -0.19174385
   -0.16848986
   -0.12905922
   -0.10914795
   -0.09128774
   -0.09098628
K-point    18 -0.35000000 -0.15000000 -0.05000000  0.00800000
Spin component 1
   -0.39561161
   -0.35752749
   -0.32572295
   -0.25492767
   -0.22284995
   -0.22266297
   -0.19683614
   -0.17252516
   -0.12311213
   -0.09444641
   -0.08665038
   -0.05922621
K-point    19 -0.35000000 -0.05000000 -0.45000000  0.00800000
Spin component 1
   -0.29740668
   -0.25686674
   -0.25033933
   -0.24855491
   -0.21676840
   -0.21044271
   -0.17836493
   -0.17039607
   -0.17039574
   -0.17000702
   -0.16457995
   -0.14793517
K-point    20 -0.35000000 -0.05000000 -0.35000000  0.00800000
Spin component 1
   -0.33642553
   -0.29184806
   -0.28239684
   -0.20703956
   -0.19717308
   -0.18233769
   -0.17841641
   -0.17841551
   -0.17562294
   -0.17261476
   -0.16766881
   -0.12033406
K-point    21 -0.35000000 -0.05000000 -0.25000000  0.00800000
Spin component 1
   -0.36633405
   -0.31940868
   -0.30931018
   -0.23068590
   -0.19659525
   -0.18999829
   -0.18999702
   -0.17587955
   -0.14161050
   -0.14138374
   -0.13962047
   -0.09996902
K-point    22 -0.35000000 -0.05000000 -0.15000000  0.00800000
Spin component 1
   -0.38653873
   -0.33830917
   -0.32785540
   -0.24732564
   -0.20828983
   -0.20026595
   -0.20026448
   -0.18424605
   -0.12157703
   -0.11491448
   -0.09093745
   -0.08828075
K-point    23 -0.35000000 -0.05000000 -0.05000000  0.00800000
Spin component 1
   -0.39671472
   -0.34789906
   -0.33728582
   -0.25587854
   -0.21472542
   -0.20609381
   -0.20609225
   -0.18924198
   -0.11294102
   -0.10333393
   -0.08348108
   -0.05825045
K-point    24 -0.35000000  0.25000000 -0.45000000  0.00800000
Spin component 1
   -0.29456092
   -0.27161446
   -0.24786970
   -0.23057814
   -0.22852508
   -0.19767338
   -0.18493537
   -0.17727287
   -0.17381207
   -0.17115596
   -0.15606367
   -0.14837117
K-point    25 -0.35000000  0.25000000 -0.05000000  0.00800000
Spin component 1
   -0.39341117
   -0.36614529
   -0.31325242
   -0.25302779
   -0.23933752
   -0.22984963
   -0.18703323
   -0.15619855
   -0.13368526
   -0.09282623
   -0.08640292
   -0.06118742
K-point    26 -0.35000000  0.35000000 -0.05000000  0.00800000
Spin component 1
   -0.39011269
   -0.37372910
   -0.29991976
   -0.25540088
   -0.25019120
   -0.23623055
   -0.17678131
   -0.14449837
   -0.14057364
   -0.10171141
   -0.07930271
   -0.06415777
K-point    27 -0.35000000  0.35000000  0.25000000  0.00800000
Spin component 1
   -0.35995227
   -0.34415481
   -0.27413769
   -0.23326977
   -0.22576339
   -0.21393670
   -0.16963844
   -0.15204922
   -0.14029707
   -0.13847435
   -0.13778058
   -0.11108368
K-point    28 -0.35000000  0.45000000 -0.45000000  0.00800000
Spin component 1
   -0.28799668
   -0.28337188
   -0.24222567
   -0.23829907
   -0.21171998
   -0.20238832
   -0.18600459
   -0.18107567
   -0.17502264
   -0.17367152
   -0.15121150
   -0.14982255
K-point    29 -0.35000000  0.45000000 -0.05000000  0.00800000
Spin component 1
   -0.38572728
   -0.38026187
   -0.28578553
   -0.27091914
   -0.24643170
   -0.24176991
   -0.16618960
   -0.15538259
   -0.12601430
   -0.11291670
   -0.07321102
   -0.06815739
K-point    30 -0.35000000  0.45000000  0.25000000  0.00800000
Spin component 1
   -0.35571569
   -0.35044452
   -0.26102094
   -0.24735956
   -0.22253994
   -0.21858043
   -0.16322577
   -0.15730547
   -0.13960841
   -0.13895769
   -0.12733412
   -0.11838241
K-point    31 -0.25000000 -0.35000000  0.45000000  0.00800000
Spin component 1
   -0.31883081
   -0.30393960
   -0.27028641
   -0.25682955
   -0.23995711
   -0.20498347
   -0.20249137
   -0.17667567
   -0.14155783
   -0.13827348
   -0.13691880
   -0.12304001
K-point    32 -0.25000000 -0.05000000  0.45000000  0.00800000
Spin component 1
   -0.32488175
   -0.28089799
   -0.27581461
   -0.27161419
   -0.23650633
   -0.22852487
   -0.17115514
   -0.16107811
   -0.15606364
   -0.15102135
   -0.13764212
   -0.11807033
K-point    33 -0.25000000  0.05000000  0.05000000  0.00800000
Spin component 1
   -0.42684797
   -0.37701490
   -0.36614495
   -0.22984768
   -0.21194493
   -0.19920929
   -0.16345526
   -0.15620068
   -0.09465517
   -0.08640333
   -0.08042733
   -0.05691180
K-point    34 -0.25000000  0.05000000  0.15000000  0.00800000
Spin component 1
   -0.41646837
   -0.36706988
   -0.35631231
   -0.22249787
   -0.20515437
   -0.19185845
   -0.15953535
   -0.15326580
   -0.10430941
   -0.10187772
   -0.09914239
   -0.09474078
K-point    35 -0.25000000  0.05000000  0.25000000  0.00800000
Spin component 1
   -0.39581748
   -0.34736890
   -0.33686731
   -0.20866803
   -0.19259455
   -0.17788130
   -0.15838288
   -0.15352720
   -0.14951743
   -0.14050782
   -0.13831473
   -0.09685265
K-point    36 -0.25000000  0.05000000  0.35000000  0.00800000
Spin component 1
   -0.36513903
   -0.31836721
   -0.30831494
   -0.21937861
   -0.19035580
   -0.18801562
   -0.18225194
   -0.17657524
   -0.15888685
   -0.14916865
   -0.14903977
   -0.10401121
K-point    37 -0.25000000  0.15000000 -0.35000000  0.00800000
Spin component 1
   -0.36407500
   -0.32752831
   -0.29742026
   -0.21859380
   -0.20448073
   -0.19359976
   -0.17646861
   -0.16338508
   -0.15850339
   -0.14988951
   -0.14964924
   -0.10574645
K-point    38 -0.25000000  0.15000000 -0.25000000  0.00800000
Spin component 1
   -0.39471999
   -0.35691007
   -0.32543741
   -0.22478092
   -0.17723482
   -0.17679550
   -0.15784807
   -0.15758660
   -0.14572047
   -0.14303088
   -0.13662157
   -0.09952338
K-point    39 -0.25000000  0.15000000 -0.15000000  0.00800000
Spin component 1
   -0.41535386
   -0.37682329
   -0.34458522
   -0.23970465
   -0.19107289
   -0.18789348
   -0.16547483
   -0.14678729
   -0.10751596
   -0.10016559
   -0.09902776
   -0.09810179
K-point    40 -0.25000000  0.15000000 -0.05000000  0.00800000
Spin component 1
   -0.42572438
   -0.38686591
   -0.35428191
   -0.24753014
   -0.19836148
   -0.19403471
   -0.17020722
   -0.14853281
   -0.09837050
   -0.09304214
   -0.07516558
   -0.05732567
K-point    41 -0.25000000  0.25000000 -0.35000000  0.00800000
Spin component 1
   -0.36195058
   -0.33575587
   -0.28574488
   -0.21872719
   -0.21703598
   -0.19886784
   -0.17084012
   -0.15775736
   -0.15110458
   -0.15103365
   -0.15103220
   -0.10921824
K-point    42 -0.25000000  0.25000000 -0.25000000  0.00800000
Spin component 1
   -0.39253112
   -0.36545593
   -0.31312852
   -0.24073754
   -0.17595601
   -0.16154700
   -0.16154494
   -0.15679062
   -0.14571947
   -0.14230439
   -0.13557738
   -0.10477494
K-point    43 -0.25000000  0.25000000 -0.15000000  0.00800000
Spin component 1
   -0.41312882
   -0.38554896
   -0.33192309
   -0.25659131
   -0.18951056
   -0.17098463
   -0.17098223
   -0.14022947
   -0.11150335
   -0.10464015
   -0.09908167
   -0.09882152
K-point    44 -0.25000000  0.25000000 -0.05000000  0.00800000
Spin component 1
   -0.42348186
   -0.39567217
   -0.34146248
   -0.26482502
   -0.19667685
   -0.17638494
   -0.17638238
   -0.14055380
   -0.10555653
   -0.10025267
   -0.07064559
   -0.05817431
K-point    45 -0.25000000  0.25000000  0.45000000  0.00800000
Spin component 1
   -0.32184856
   -0.29711423
   -0.27304067
   -0.25104810
   -0.25074073
   -0.21137731
   -0.19331591
   -0.16899531
   -0.14384791
   -0.14384738
   -0.13790593
   -0.12050329
K-point    46 -0.25000000  0.35000000 -0.35000000  0.00800000
Spin component 1
   -0.35877210
   -0.34301955
   -0.27336090
   -0.23289741
   -0.21472652
   -0.20370148
   -0.16555346
   -0.15669826
   -0.15346527
   -0.15243488
   -0.13975906
   -0.11441330
K-point    47 -0.25000000  0.35000000 -0.25000000  0.00800000
Spin component 1
   -0.38925506
   -0.37298321
   -0.29999620
   -0.25636612
   -0.17407323
   -0.16527958
   -0.15525568
   -0.14841696
   -0.14714903
   -0.13943179
   -0.13529804
   -0.11243272
K-point    48 -0.25000000  0.35000000 -0.15000000  0.00800000
Spin component 1
   -0.40979554
   -0.39322463
   -0.31837474
   -0.27300900
   -0.18718946
   -0.17597585
   -0.15473812
   -0.13374314
   -0.11622227
   -0.11402175
   -0.09858278
   -0.09850606
K-point    49 -0.25000000  0.35000000 -0.05000000  0.00800000
Spin component 1
   -0.42012279
   -0.40341696
   -0.32773000
   -0.28159529
   -0.19416559
   -0.18191920
   -0.15930356
   -0.13237349
   -0.11578024
   -0.10791992
   -0.06685978
   -0.05949559
K-point    50 -0.25000000  0.45000000 -0.35000000  0.00800000
Spin component 1
   -0.35454737
   -0.34929040
   -0.26035302
   -0.24682216
   -0.21170188
   -0.20800499
   -0.16078956
   -0.15671772
   -0.15539228
   -0.15393293
   -0.12978686
   -0.12129672
K-point    51 -0.25000000  0.45000000 -0.25000000  0.00800000
Spin component 1
   -0.38489749
   -0.37946958
   -0.28610209
   -0.27152524
   -0.17162382
   -0.16866878
   -0.15329265
   -0.15098144
   -0.13724371
   -0.13584626
   -0.13393713
   -0.12225437
K-point    52 -0.25000000  0.45000000 -0.15000000  0.00800000
Spin component 1
   -0.40536067
   -0.39983344
   -0.30399346
   -0.28884354
   -0.18413388
   -0.18037885
   -0.13954060
   -0.12747733
   -0.12581279
   -0.12158762
   -0.09837844
   -0.09831643
K-point    53 -0.25000000  0.45000000 -0.05000000  0.00800000
Spin component 1
   -0.41565306
   -0.41008290
   -0.31313019
   -0.29772617
   -0.19084908
   -0.18675501
   -0.14319397
   -0.12851204
   -0.12411705
   -0.11591897
   -0.06377428
   -0.06134134
K-point    54 -0.25000000  0.45000000  0.45000000  0.00800000
Spin component 1
   -0.31482371
   -0.30985261
   -0.26664696
   -0.26214812
   -0.22848198
   -0.21676650
   -0.19362039
   -0.18494820
   -0.13996515
   -0.13891868
   -0.13116938
   -0.12656642
K-point    55 -0.15000000 -0.35000000  0.45000000  0.00800000
Spin component 1
   -0.33741646
   -0.32194536
   -0.28761267
   -0.27321853
   -0.25403992
   -0.21516409
   -0.21230936
   -0.17999721
   -0.12880402
   -0.12086267
   -0.10972376
   -0.10653595
K-point    56 -0.15000000  0.45000000 -0.35000000  0.00800000
Spin component 1
   -0.37381848
   -0.36843383
   -0.27620183
   -0.26188789
   -0.22655297
   -0.22233513
   -0.16041307
   -0.15305029
   -0.12934670
   -0.11897181
   -0.11845974
   -0.11845785
K-point    57 -0.15000000  0.45000000  0.45000000  0.00800000
Spin component 1
   -0.33326290
   -0.32810033
   -0.28373351
   -0.27892700
   -0.24148123
   -0.22847818
   -0.20160797
   -0.19078088
   -0.11996052
   -0.11619851
   -0.11251379
   -0.11251311
K-point    58  0.05000000 -0.35000000 -0.35000000  0.00800000
Spin component 1
   -0.38793260
   -0.37162018
   -0.29838318
   -0.25450517
   -0.23791613
   -0.22461536
   -0.17048822
   -0.14392330
   -0.14377143
   -0.10791223
   -0.10229034
   -0.09606371
K-point    59  0.05000000 -0.35000000 -0.25000000  0.00800000
Spin component 1
   -0.41912552
   -0.40244982
   -0.32699607
   -0.28112550
   -0.17336581
   -0.16258994
   -0.16053805
   -0.12411589
   -0.11836495
   -0.10998347
   -0.10093398
   -0.09962573
K-point    60  0.05000000 -0.35000000 -0.15000000  0.00800000
Spin component 1
   -0.44007989
   -0.42318897
   -0.34645339
   -0.29944961
   -0.17323065
   -0.12721978
   -0.10814723
   -0.10634404
   -0.10165015
   -0.10048747
   -0.08626439
   -0.08623664
K-point    61  0.05000000 -0.35000000 -0.05000000  0.00800000
Spin component 1
   -0.45059953
   -0.43360844
   -0.35628732
   -0.30877082
   -0.17999763
   -0.13219367
   -0.10970966
   -0.10180760
   -0.07469378
   -0.06499485
   -0.05804201
   -0.05730652
K-point    62  0.05000000 -0.35000000  0.45000000  0.00800000
Spin component 1
   -0.34685123
   -0.33112235
   -0.29647720
   -0.28167428
   -0.26149633
   -0.22092737
   -0.21792149
   -0.18275628
   -0.12598134
   -0.11111644
   -0.09905740
   -0.09481231
K-point    63  0.05000000 -0.25000000 -0.45000000  0.00800000
Spin component 1
   -0.35002586
   -0.32386902
   -0.29947855
   -0.27488888
   -0.27388999
   -0.22900829
   -0.20666847
   -0.17090094
   -0.13771579
   -0.11886741
   -0.09340978
   -0.09167193
K-point    64  0.05000000 -0.25000000 -0.35000000  0.00800000
Spin component 1
   -0.39121773
   -0.36407467
   -0.31157535
   -0.24063638
   -0.23876047
   -0.21859360
   -0.17943663
   -0.15850124
   -0.13572053
   -0.10574749
   -0.09991551
   -0.09504388
K-point    65  0.05000000 -0.25000000 -0.25000000  0.00800000
Spin component 1
   -0.42247919
   -0.39471965
   -0.34067244
   -0.26448473
   -0.17723220
   -0.17561710
   -0.15784798
   -0.12971527
   -0.10856320
   -0.10653975
   -0.10137832
   -0.09952560
K-point    66  0.05000000 -0.25000000 -0.15000000  0.00800000
Spin component 1
   -0.44347419
   -0.41535352
   -0.36040756
   -0.28230417
   -0.19107001
   -0.11625938
   -0.10958665
   -0.10763559
   -0.09902785
   -0.09810483
   -0.08745582
   -0.08737597
K-point    67  0.05000000 -0.25000000 -0.05000000  0.00800000
Spin component 1
   -0.45401335
   -0.42572403
   -0.37036762
   -0.29139679
   -0.19835847
   -0.12068145
   -0.11138159
   -0.09837393
   -0.07854684
   -0.06259981
   -0.05832499
   -0.05732599
K-point    68  0.05000000 -0.15000000 -0.45000000  0.00800000
Spin component 1
   -0.35214681
   -0.31565007
   -0.30148661
   -0.28556594
   -0.26723319
   -0.23957063
   -0.19229321
   -0.15927230
   -0.15046110
   -0.12769440
   -0.08960763
   -0.08960686
K-point    69  0.05000000 -0.15000000 -0.35000000  0.00800000
Spin component 1
   -0.39341088
   -0.35550574
   -0.32393220
   -0.24246068
   -0.22266055
   -0.21186206
   -0.18817051
   -0.17404313
   -0.12811783
   -0.11003652
   -0.09441371
   -0.09441157
K-point    70  0.05000000 -0.15000000 -0.25000000  0.00800000
Spin component 1
   -0.42471699
   -0.38593394
   -0.35344374
   -0.24734770
   -0.19455466
   -0.17713617
   -0.15265720
   -0.13551708
   -0.10382650
   -0.10170924
   -0.10170609
   -0.09978009
K-point    71  0.05000000 -0.15000000 -0.15000000  0.00800000
Spin component 1
   -0.44573948
   -0.40644011
   -0.37341894
   -0.26457930
   -0.20941820
   -0.11057374
   -0.10851808
   -0.10851430
   -0.09634503
   -0.09565996
   -0.08916248
   -0.08899257
K-point    72  0.05000000 -0.15000000 -0.05000000  0.00800000
Spin component 1
   -0.45629434
   -0.41675247
   -0.38348758
   -0.27340571
   -0.21717283
   -0.11251185
   -0.11250779
   -0.09464835
   -0.08256618
   -0.06067899
   -0.05854528
   -0.05760605
K-point    73  0.05000000 -0.05000000 -0.45000000  0.00800000
Spin component 1
   -0.35320999
   -0.30650042
   -0.30249302
   -0.29645503
   -0.25875751
   -0.24951382
   -0.17798963
   -0.16396748
   -0.14806634
   -0.13747843
   -0.08858639
   -0.08769424
K-point    74  0.05000000 -0.05000000 -0.35000000  0.00800000
Spin component 1
   -0.39451044
   -0.34593626
   -0.33539925
   -0.24337611
   -0.20637287
   -0.20448765
   -0.19655836
   -0.19008883
   -0.12124799
   -0.11520243
   -0.09411006
   -0.09160258
K-point    75  0.05000000 -0.05000000 -0.25000000  0.00800000
Spin component 1
   -0.42583918
   -0.37610713
   -0.36526774
   -0.22985637
   -0.21218594
   -0.17790275
   -0.14712632
   -0.14136743
   -0.10188458
   -0.10183272
   -0.10051225
   -0.09817092
K-point    76  0.05000000 -0.05000000 -0.15000000  0.00800000
Spin component 1
   -0.44687267
   -0.39646355
   -0.38544754
   -0.24640918
   -0.22795012
   -0.11107574
   -0.10896704
   -0.10449715
   -0.09372354
   -0.09324819
   -0.09128807
   -0.09098862
K-point    77  0.05000000 -0.05000000 -0.05000000  0.00800000
Spin component 1
   -0.45743235
   -0.40670827
   -0.39561091
   -0.25492533
   -0.23611279
   -0.11308127
   -0.10825081
   -0.09071177
   -0.08665321
   -0.05922694
   -0.05865795
   -0.05821729
K-point    78  0.05000000  0.45000000 -0.45000000  0.00800000
Spin component 1
   -0.34263290
   -0.33738428
   -0.29249745
   -0.28755510
   -0.24847014
   -0.23490598
   -0.20642728
   -0.19465454
   -0.11549284
   -0.10646205
   -0.10451447
   -0.09908499
K-point    79  0.05000000  0.45000000 -0.35000000  0.00800000
Spin component 1
   -0.38356548
   -0.37812288
   -0.28441933
   -0.26976194
   -0.23431965
   -0.22987456
   -0.16147840
   -0.15256637
   -0.13018918
   -0.11811519
   -0.09958777
   -0.09754669
K-point    80  0.05000000  0.45000000 -0.25000000  0.00800000
Spin component 1
   -0.41466427
   -0.40910233
   -0.31246552
   -0.29714955
   -0.17041312
   -0.16680255
   -0.14485430
   -0.13063329
   -0.11887198
   -0.11412178
   -0.10043637
   -0.09996711
K-point    81  0.05000000  0.45000000 -0.15000000  0.00800000
Spin component 1
   -0.43556265
   -0.42992828
   -0.33160186
   -0.31591160
   -0.15630253
   -0.14077494
   -0.10629924
   -0.10468114
   -0.10410606
   -0.10270632
   -0.08565283
   -0.08564547
K-point    82  0.05000000  0.45000000 -0.05000000  0.00800000
Spin component 1
   -0.44605636
   -0.44038900
   -0.34128832
   -0.32542935
   -0.16249565
   -0.14635879
   -0.10752997
   -0.10487842
   -0.07109852
   -0.06784350
   -0.05773711
   -0.05746798
K-point    83  0.15000000 -0.45000000 -0.25000000  0.00800000
Spin component 1
   -0.40468102
   -0.39916092
   -0.30354703
   -0.28846153
   -0.16434741
   -0.16112766
   -0.14074650
   -0.12733756
   -0.12733483
   -0.12572190
   -0.12371396
   -0.12114281
K-point    84  0.15000000 -0.45000000 -0.15000000  0.00800000
Spin component 1
   -0.42544156
   -0.41984197
   -0.32230031
   -0.30678162
   -0.15041282
   -0.13546415
   -0.13546092
   -0.13265217
   -0.10314152
   -0.10161174
   -0.09994322
   -0.09762669
K-point    85  0.15000000 -0.45000000 -0.05000000  0.00800000
Spin component 1
   -0.43587257
   -0.43023603
   -0.33181841
   -0.31610298
   -0.15583567
   -0.14017017
   -0.14016671
   -0.13683546
   -0.09018331
   -0.08488569
   -0.05912172
   -0.05849453
K-point    86  0.15000000 -0.35000000 -0.35000000  0.00800000
Spin component 1
   -0.37814023
   -0.36200423
   -0.28987284
   -0.24703768
   -0.22997757
   -0.21736609
   -0.16809433
   -0.14618138
   -0.14175930
   -0.11987200
   -0.11821355
   -0.10937362
K-point    87  0.15000000 -0.35000000 -0.25000000  0.00800000
Spin component 1
   -0.40911053
   -0.39256112
   -0.31787806
   -0.27270326
   -0.16700104
   -0.15741326
   -0.15564697
   -0.12874251
   -0.12697332
   -0.12398990
   -0.11933006
   -0.11585700
K-point    88  0.15000000 -0.35000000 -0.15000000  0.00800000
Spin component 1
   -0.42993477
   -0.41314341
   -0.33700613
   -0.29051678
   -0.16679318
   -0.13778631
   -0.12940830
   -0.12247488
   -0.10447872
   -0.10283976
   -0.09998692
   -0.09595814
K-point    89  0.15000000 -0.35000000 -0.05000000  0.00800000
Spin component 1
   -0.44039369
   -0.42349287
   -0.34669145
   -0.29961027
   -0.17289225
   -0.14289379
   -0.13293068
   -0.12646772
   -0.09574933
   -0.07995956
   -0.06004272
   -0.05809951
K-point    90  0.15000000 -0.25000000 -0.35000000  0.00800000
Spin component 1
   -0.38139302
   -0.35454715
   -0.30281646
   -0.23257445
   -0.23177228
   -0.21170176
   -0.17591341
   -0.15539036
   -0.13996161
   -0.12129799
   -0.11812640
   -0.10234058
K-point    91  0.15000000 -0.25000000 -0.25000000  0.00800000
Spin component 1
   -0.41244129
   -0.38489727
   -0.33138582
   -0.25637721
   -0.17162138
   -0.16903324
   -0.15329260
   -0.13080736
   -0.12985945
   -0.12225660
   -0.11829661
   -0.10675720
K-point    92  0.15000000 -0.25000000 -0.15000000  0.00800000
Spin component 1
   -0.43330896
   -0.40536044
   -0.35083131
   -0.27359784
   -0.18413116
   -0.13957053
   -0.12581561
   -0.11202717
   -0.10621633
   -0.10555183
   -0.09837853
   -0.09496834
K-point    93  0.15000000 -0.25000000 -0.05000000  0.00800000
Spin component 1
   -0.44378967
   -0.41565282
   -0.36066042
   -0.28242797
   -0.19084623
   -0.14496614
   -0.12851514
   -0.11537540
   -0.10147148
   -0.07548799
   -0.06134157
   -0.05786525
K-point    94  0.15000000 -0.25000000  0.45000000  0.00800000
Spin component 1
   -0.34054339
   -0.31482351
   -0.29053881
   -0.26664679
   -0.26603892
   -0.22273080
   -0.20169344
   -0.16944708
   -0.13891760
   -0.12656649
   -0.10773482
   -0.10205887
K-point    95  0.15000000 -0.15000000 -0.45000000  0.00800000
Spin component 1
   -0.34263301
   -0.30676595
   -0.29249754
   -0.27738558
   -0.25925041
   -0.23274184
   -0.18824533
   -0.15932629
   -0.15013030
   -0.13332463
   -0.10646313
   -0.09908466
K-point    96  0.15000000 -0.15000000 -0.35000000  0.00800000
Spin component 1
   -0.38356559
   -0.34608247
   -0.31496335
   -0.23431972
   -0.21623877
   -0.20541030
   -0.18369851
   -0.16993517
   -0.13451883
   -0.12338004
   -0.11811741
   -0.09754495
K-point    97  0.15000000 -0.15000000 -0.25000000  0.00800000
Spin component 1
   -0.41466438
   -0.37618539
   -0.34401533
   -0.23960471
   -0.18829865
   -0.17041317
   -0.14886784
   -0.13507038
   -0.13063628
   -0.12064804
   -0.11800758
   -0.10043354
K-point    98  0.15000000 -0.15000000 -0.15000000  0.00800000
Spin component 1
   -0.43556277
   -0.39650616
   -0.36373467
   -0.25613509
   -0.20202625
   -0.14077837
   -0.12196138
   -0.10994713
   -0.10629923
   -0.10467761
   -0.09691319
   -0.09463907
K-point    99  0.15000000 -0.15000000 -0.05000000  0.00800000
Spin component 1
   -0.44605648
   -0.40673336
   -0.37368701
   -0.26465638
   -0.20929071
   -0.14636243
   -0.12365484
   -0.10752612
   -0.10723096
   -0.07154246
   -0.06309169
   -0.05773703
K-point   100  0.15000000 -0.05000000 -0.45000000  0.00800000
Spin component 1
   -0.34367910
   -0.29780865
   -0.29347752
   -0.28799620
   -0.25108826
   -0.24222528
   -0.17502142
   -0.16224002
   -0.14982210
   -0.14110668
   -0.10584194
   -0.09760039
K-point   101  0.15000000 -0.05000000 -0.35000000  0.00800000
Spin component 1
   -0.38465236
   -0.33664081
   -0.32625427
   -0.23519418
   -0.20061260
   -0.19857603
   -0.19129781
   -0.18509732
   -0.12993466
   -0.12623240
   -0.11812759
   -0.09511284
K-point   102  0.15000000 -0.05000000 -0.25000000  0.00800000
Spin component 1
   -0.41577604
   -0.36645035
   -0.35571514
   -0.22253796
   -0.20536112
   -0.17110718
   -0.14425945
   -0.13960841
   -0.13103395
   -0.11930983
   -0.11838394
   -0.09718637
K-point   103  0.15000000 -0.05000000 -0.15000000  0.00800000
Spin component 1
   -0.43668929
   -0.38660121
   -0.37566688
   -0.23826596
   -0.22015863
   -0.14138732
   -0.11795261
   -0.11390481
   -0.10667987
   -0.10087639
   -0.09571769
   -0.09492117
K-point   104  0.15000000 -0.05000000 -0.05000000  0.00800000
Spin component 1
   -0.44718992
   -0.39675148
   -0.38572670
   -0.24642949
   -0.22790529
   -0.14706467
   -0.11842692
   -0.11291927
   -0.10345228
   -0.06815803
   -0.06535125
   -0.05768204
K-point   105  0.25000000  0.15000000  0.45000000  0.00800000
Spin component 1
   -0.32386933
   -0.28941888
   -0.27488915
   -0.26163393
   -0.24394172
   -0.22010539
   -0.18196934
   -0.16208143
   -0.15192845
   -0.14696788
   -0.13771718
   -0.11886768
K-point   106  0.35000000 -0.45000000  0.15000000  0.00800000
Spin component 1
   -0.37566745
   -0.37026301
   -0.27733479
   -0.26283078
   -0.23826809
   -0.23381873
   -0.16433435
   -0.15504984
   -0.12563300
   -0.11390257
   -0.09727527
   -0.09492084
K-point   107  0.35000000 -0.35000000  0.15000000  0.00800000
Spin component 1
   -0.38000560
   -0.36380567
   -0.29116065
   -0.24774686
   -0.24186575
   -0.22854849
   -0.17364757
   -0.14595981
   -0.13886804
   -0.10401695
   -0.10037287
   -0.09320358
K-point   108  0.35000000 -0.25000000 -0.15000000  0.00800000
Spin component 1
   -0.38326887
   -0.35631265
   -0.30423084
   -0.24458536
   -0.23219534
   -0.22249974
   -0.18283060
   -0.15326386
   -0.13723863
   -0.10430914
   -0.09629133
   -0.09202326
K-point   109  0.35000000 -0.15000000 -0.45000000  0.00800000
Spin component 1
   -0.29645561
   -0.26458127
   -0.24951431
   -0.23975123
   -0.22284267
   -0.20401886
   -0.17799105
   -0.17721703
   -0.17163101
   -0.17031968
   -0.15981300
   -0.14806705
K-point   110  0.35000000 -0.15000000 -0.35000000  0.00800000
Spin component 1
   -0.33539989
   -0.30050499
   -0.27222353
   -0.20637474
   -0.19655869
   -0.18985382
   -0.18637366
   -0.17889395
   -0.17479487
   -0.17006607
   -0.15782159
   -0.12124770
K-point   111  0.35000000  0.35000000 -0.45000000  0.00800000
Spin component 1
   -0.29173544
   -0.27789651
   -0.24543055
   -0.23370787
   -0.22117927
   -0.19339427
   -0.19160056
   -0.17697595
   -0.17625812
   -0.17233159
   -0.15324106
   -0.14891903
K-point   112  0.35000000  0.35000000 -0.35000000  0.00800000
Spin component 1
   -0.33030469
   -0.31523382
   -0.25004093
   -0.21393814
   -0.20312525
   -0.19413832
   -0.19357773
   -0.18552971
   -0.16920274
   -0.16704037
   -0.14143875
   -0.12597131
K-point   113  0.35000000  0.45000000 -0.35000000  0.00800000
Spin component 1
   -0.32625479
   -0.32122382
   -0.23824574
   -0.22615850
   -0.20061430
   -0.19759104
   -0.19129806
   -0.18858581
   -0.16755744
   -0.16682698
   -0.13507224
   -0.12993412
K-point   114  0.45000000 -0.45000000  0.25000000  0.00800000
Spin component 1
   -0.31787904
   -0.31286457
   -0.27270473
   -0.26809724
   -0.22998719
   -0.21786016
   -0.19589489
   -0.18626206
   -0.12896536
   -0.12697307
   -0.12478499
   -0.11932927
K-point   115  0.45000000 -0.35000000 -0.45000000  0.00800000
Spin component 1
   -0.25732331
   -0.24529565
   -0.21767465
   -0.21475081
   -0.20872133
   -0.20607807
   -0.20121533
   -0.18507608
   -0.18507597
   -0.18440523
   -0.18113485
   -0.17762040
K-point   116  0.45000000 -0.35000000 -0.35000000  0.00800000
Spin component 1
   -0.29363642
   -0.27969852
   -0.25032730
   -0.23826482
   -0.22216312
   -0.19349361
   -0.19349331
   -0.17642023
   -0.16906495
   -0.16618660
   -0.15023725
   -0.14505156
K-point   117  0.45000000 -0.35000000 -0.25000000  0.00800000
Spin component 1
   -0.32191878
   -0.30689506
   -0.27642767
   -0.26263852
   -0.24180172
   -0.20557465
   -0.20557422
   -0.17686710
   -0.13169558
   -0.13149068
   -0.12558315
   -0.11508635
K-point   118  0.45000000 -0.35000000 -0.15000000  0.00800000
Spin component 1
   -0.34119472
   -0.32557656
   -0.29447606
   -0.27975912
   -0.25647040
   -0.21622576
   -0.21622526
   -0.18098046
   -0.12212881
   -0.10828826
   -0.09553692
   -0.09158552
K-point   119  0.45000000 -0.15000000  0.15000000  0.00800000
Spin component 1
   -0.34645453
   -0.31021663
   -0.29945128
   -0.28035534
   -0.26539482
   -0.23783614
   -0.18782823
   -0.15730462
   -0.14636301
   -0.12523698
   -0.08626357
   -0.08623510
K-point   120  0.45000000 -0.05000000 -0.45000000  0.00800000
Spin component 1
   -0.26234185
   -0.22777993
   -0.22159409
   -0.22117955
   -0.21857277
   -0.19714924
   -0.19507903
   -0.19339471
   -0.19160069
   -0.18310762
   -0.17697598
   -0.17616863
K-point   121  0.45000000 -0.05000000 -0.15000000  0.00800000
Spin component 1
   -0.34750795
   -0.30113291
   -0.30045069
   -0.29116108
   -0.25695565
   -0.24774781
   -0.17364659
   -0.15974447
   -0.14595936
   -0.13520532
   -0.08522344
   -0.08435454
K-point   122  0.45000000  0.25000000 -0.25000000  0.00800000
Spin component 1
   -0.32496193
   -0.29999695
   -0.27924129
   -0.25636734
   -0.25316861
   -0.21512928
   -0.19331042
   -0.16790613
   -0.13943090
   -0.13529769
   -0.12466454
   -0.11199564
K-point   123  0.45000000  0.25000000 -0.15000000  0.00800000
Spin component 1
   -0.34434801
   -0.31837552
   -0.29745771
   -0.27301030
   -0.26876830
   -0.22729736
   -0.20208278
   -0.16904262
   -0.13374179
   -0.11622152
   -0.08997740
   -0.08837003
K-point   124  0.45000000  0.35000000 -0.05000000  0.00800000
Spin component 1
   -0.35094821
   -0.33506681
   -0.30367280
   -0.28855302
   -0.26421653
   -0.22224724
   -0.22224672
   -0.18418627
   -0.11891206
   -0.09737838
   -0.08664038
   -0.07337794
K-point   125  0.45000000  0.45000000  0.45000000  0.00800000
Spin component 1
   -0.25404071
   -0.25001343
   -0.21516516
   -0.21230995
   -0.21215142
   -0.20938904
   -0.19514891
   -0.18970796
   -0.18387483
   -0.18365021
   -0.17999787
   -0.17878297
