Number of k-points    64
Number of spin components 1
Number of electrons  16.00    
Number of eigenvalues      8
Fermi energy (in atomic units)    -0.033691
Unit cell vectors
    5.647296    0.000000    0.000000
    0.000000    5.632185    0.000000
    0.000000    0.000000   11.155800
K-point     1 -0.43750000 -0.43750000 -0.43750000  0.01562500
Spin component 1
   -0.24419434
   -0.23139871
   -0.19092751
   -0.18909021
   -0.18241390
   -0.18068148
   -0.14915788
   -0.14892139
K-point     9 -0.31250000 -0.43750000 -0.06250000  0.01562500
Spin component 1
   -0.31232693
   -0.24893010
   -0.21296900
   -0.18948109
   -0.16948480
   -0.15513963
   -0.13783823
   -0.10214249
K-point    17 -0.18750000 -0.43750000 -0.43750000  0.01562500
Spin component 1
   -0.32077660
   -0.30485089
   -0.25692078
   -0.24239257
   -0.12372818
   -0.10212434
   -0.09991688
   -0.09005748
K-point    25 -0.18750000 -0.18750000 -0.18750000  0.01562500
Spin component 1
   -0.42613043
   -0.34128654
   -0.24603166
   -0.11954066
   -0.11120247
   -0.08797065
   -0.08465593
   -0.07782027
K-point    33  0.06250000 -0.43750000 -0.18750000  0.01562500
Spin component 1
   -0.35758866
   -0.29115641
   -0.27678055
   -0.21610206
   -0.18905675
   -0.13946751
   -0.05239224
   -0.04212578
K-point    41  0.06250000 -0.18750000 -0.18750000  0.01562500
Spin component 1
   -0.44359292
   -0.35777458
   -0.26063856
   -0.12966781
   -0.08308511
   -0.08268431
   -0.05280876
   -0.04447729
K-point    49  0.31250000 -0.43750000 -0.31250000  0.01562500
Spin component 1
   -0.30070144
   -0.25629371
   -0.23866644
   -0.20136507
   -0.14574723
   -0.13683668
   -0.13509873
   -0.10839999
K-point    57  0.43750000 -0.43750000  0.06250000  0.01562500
Spin component 1
   -0.26461910
   -0.20611433
   -0.20412591
   -0.18420587
   -0.16971014
   -0.16241937
   -0.16103841
   -0.15387539
K-point     2 -0.43750000 -0.31250000 -0.31250000  0.01562500
Spin component 1
   -0.30019379
   -0.25587329
   -0.23716259
   -0.20020335
   -0.14616565
   -0.13813871
   -0.13775297
   -0.10978313
K-point    10 -0.31250000 -0.43750000  0.18750000  0.01562500
Spin component 1
   -0.30843108
   -0.24547641
   -0.23558343
   -0.18540839
   -0.16651875
   -0.14392999
   -0.13678327
   -0.10401779
K-point    18 -0.18750000 -0.43750000 -0.06250000  0.01562500
Spin component 1
   -0.34512116
   -0.27944008
   -0.23687692
   -0.20906790
   -0.18296528
   -0.16034036
   -0.07575657
   -0.06244535
K-point    26 -0.18750000 -0.18750000 -0.06250000  0.01562500
Spin component 1
   -0.43046690
   -0.31262311
   -0.28068844
   -0.12187402
   -0.11337040
   -0.08380187
   -0.08264268
   -0.06374903
K-point    34  0.06250000 -0.43750000 -0.06250000  0.01562500
Spin component 1
   -0.36176431
   -0.29510609
   -0.24996857
   -0.22046596
   -0.19201656
   -0.16605778
   -0.04284121
   -0.03685977
K-point    42  0.06250000 -0.18750000 -0.06250000  0.01562500
Spin component 1
   -0.44796888
   -0.32865776
   -0.29611764
   -0.13251090
   -0.07126232
   -0.06724917
   -0.06068743
   -0.04492111
K-point    50  0.31250000 -0.18750000  0.31250000  0.01562500
Spin component 1
   -0.38300244
   -0.33312317
   -0.18872819
   -0.18415199
   -0.15447764
   -0.10027858
   -0.10013723
   -0.09164140
K-point    58  0.43750000 -0.18750000 -0.31250000  0.01562500
Spin component 1
   -0.33212756
   -0.28467665
   -0.26631240
   -0.22338932
   -0.15153562
   -0.12001479
   -0.08710552
   -0.08384610
K-point     3 -0.43750000 -0.18750000  0.06250000  0.01562500
Spin component 1
   -0.34434605
   -0.27762487
   -0.23647322
   -0.20879034
   -0.18218665
   -0.15997646
   -0.08168048
   -0.06602087
K-point    11 -0.31250000 -0.31250000 -0.43750000  0.01562500
Spin component 1
   -0.33734703
   -0.32126374
   -0.16150071
   -0.15800078
   -0.15331951
   -0.15019809
   -0.13728487
   -0.11298593
K-point    19 -0.18750000 -0.43750000  0.18750000  0.01562500
Spin component 1
   -0.34102704
   -0.27563177
   -0.26250855
   -0.20478230
   -0.18003304
   -0.13835594
   -0.07771523
   -0.06868400
K-point    27 -0.18750000 -0.06250000 -0.43750000  0.01562500
Spin component 1
   -0.42172348
   -0.40445190
   -0.18417511
   -0.14601654
   -0.10826099
   -0.09901228
   -0.05596833
   -0.05454020
K-point    35  0.06250000 -0.31250000 -0.43750000  0.01562500
Spin component 1
   -0.38747859
   -0.37053562
   -0.19524733
   -0.18188048
   -0.15870028
   -0.12356438
   -0.06063693
   -0.05083546
K-point    43  0.06250000 -0.06250000 -0.43750000  0.01562500
Spin component 1
   -0.43915405
   -0.42173315
   -0.19751744
   -0.15789970
   -0.05660639
   -0.05096956
   -0.04238802
   -0.03886736
K-point    51  0.31250000 -0.06250000 -0.43750000  0.01562500
Spin component 1
   -0.38713924
   -0.37020926
   -0.19144493
   -0.17832904
   -0.15907111
   -0.12428947
   -0.06693697
   -0.05954795
K-point    59  0.43750000 -0.06250000  0.06250000  0.01562500
Spin component 1
   -0.36089033
   -0.29318718
   -0.24948079
   -0.22011192
   -0.19107506
   -0.16553840
   -0.04757625
   -0.04560887
K-point     4 -0.43750000 -0.06250000  0.43750000  0.01562500
Spin component 1
   -0.33605564
   -0.31975260
   -0.26983997
   -0.25465926
   -0.12605833
   -0.09749540
   -0.09226894
   -0.07344370
K-point    12 -0.31250000 -0.31250000 -0.18750000  0.01562500
Spin component 1
   -0.35778439
   -0.27844622
   -0.19473067
   -0.17345908
   -0.16959143
   -0.13798952
   -0.13614805
   -0.08118085
K-point    20 -0.18750000 -0.31250000 -0.43750000  0.01562500
Spin component 1
   -0.37061760
   -0.35392986
   -0.18312804
   -0.17120611
   -0.15012591
   -0.11822801
   -0.09335576
   -0.09264953
K-point    28 -0.18750000 -0.06250000 -0.31250000  0.01562500
Spin component 1
   -0.43475901
   -0.38305517
   -0.22295079
   -0.11577789
   -0.11114573
   -0.08875545
   -0.05791877
   -0.05450496
K-point    36  0.06250000 -0.31250000 -0.31250000  0.01562500
Spin component 1
   -0.40028571
   -0.34958480
   -0.20558346
   -0.19509606
   -0.16589113
   -0.09226905
   -0.07394588
   -0.04432744
K-point    44  0.06250000 -0.06250000 -0.31250000  0.01562500
Spin component 1
   -0.45229575
   -0.40013083
   -0.23741795
   -0.12125328
   -0.06143686
   -0.04571505
   -0.04519305
   -0.03585129
K-point    52  0.31250000 -0.06250000 -0.31250000  0.01562500
Spin component 1
   -0.39993839
   -0.34927892
   -0.20162808
   -0.19521535
   -0.16273877
   -0.09344852
   -0.07773963
   -0.05504668
K-point    60  0.43750000  0.06250000 -0.31250000  0.01562500
Spin component 1
   -0.34841813
   -0.29968912
   -0.28143114
   -0.23616506
   -0.15719918
   -0.11485384
   -0.07363820
   -0.05929856
K-point     5 -0.43750000  0.06250000 -0.18750000  0.01562500
Spin component 1
   -0.35672167
   -0.28925128
   -0.27613209
   -0.21476439
   -0.18904518
   -0.13979976
   -0.05650583
   -0.05008924
K-point    13 -0.31250000 -0.31250000 -0.06250000  0.01562500
Spin component 1
   -0.36191138
   -0.25247482
   -0.22424611
   -0.17607618
   -0.17214235
   -0.13380114
   -0.13268697
   -0.07486528
K-point    21 -0.18750000 -0.31250000 -0.18750000  0.01562500
Spin component 1
   -0.39172255
   -0.30906523
   -0.21811591
   -0.19897537
   -0.14247088
   -0.10373680
   -0.09463722
   -0.07051893
K-point    29 -0.18750000 -0.06250000 -0.18750000  0.01562500
Spin component 1
   -0.44348968
   -0.35769114
   -0.26061598
   -0.12105268
   -0.08348641
   -0.07842392
   -0.05964660
   -0.05666729
K-point    37  0.06250000 -0.31250000 -0.18750000  0.01562500
Spin component 1
   -0.40886917
   -0.32481534
   -0.23094548
   -0.21261069
   -0.14786828
   -0.09035863
   -0.06817807
   -0.04052987
K-point    45  0.06250000 -0.06250000 -0.18750000  0.01562500
Spin component 1
   -0.46109223
   -0.37449254
   -0.27593348
   -0.09173277
   -0.06494714
   -0.04827007
   -0.04003380
   -0.03405002
K-point    53  0.31250000 -0.06250000 -0.18750000  0.01562500
Spin component 1
   -0.40851607
   -0.32454351
   -0.23089532
   -0.20856785
   -0.14533619
   -0.09187730
   -0.06982879
   -0.05264704
K-point    61  0.43750000  0.18750000  0.43750000  0.01562500
Spin component 1
   -0.32004223
   -0.30414987
   -0.25521485
   -0.24078410
   -0.12482412
   -0.10486888
   -0.10175038
   -0.09399482
K-point     6 -0.43750000  0.18750000  0.18750000  0.01562500
Spin component 1
   -0.34025831
   -0.27383104
   -0.26195275
   -0.20358298
   -0.18008218
   -0.13884055
   -0.08330714
   -0.07190589
K-point    14 -0.31250000 -0.18750000 -0.18750000  0.01562500
Spin component 1
   -0.39147115
   -0.30887631
   -0.21809400
   -0.19506789
   -0.14027986
   -0.10540720
   -0.10196058
   -0.07168042
K-point    22 -0.18750000 -0.31250000 -0.06250000  0.01562500
Spin component 1
   -0.39597349
   -0.28142905
   -0.25088891
   -0.20226672
   -0.12769239
   -0.11427203
   -0.09542913
   -0.05972595
K-point    30 -0.18750000 -0.06250000 -0.06250000  0.01562500
Spin component 1
   -0.44786595
   -0.32859235
   -0.29606380
   -0.12376885
   -0.06914509
   -0.06778345
   -0.06144159
   -0.06064338
K-point    38  0.06250000 -0.31250000 -0.06250000  0.01562500
Spin component 1
   -0.41317224
   -0.29650034
   -0.26502010
   -0.21616799
   -0.12865005
   -0.10886571
   -0.05488817
   -0.03881958
K-point    46  0.06250000 -0.06250000 -0.06250000  0.01562500
Spin component 1
   -0.46550091
   -0.34502647
   -0.31202233
   -0.07475439
   -0.06678694
   -0.04964825
   -0.03627834
   -0.03394862
K-point    54  0.31250000  0.18750000 -0.43750000  0.01562500
Spin component 1
   -0.37037739
   -0.35369931
   -0.17949707
   -0.16786323
   -0.15042131
   -0.11877884
   -0.09867180
   -0.09820629
K-point    62  0.43750000  0.31250000  0.18750000  0.01562500
Spin component 1
   -0.30791332
   -0.24393657
   -0.23523451
   -0.18451760
   -0.16663323
   -0.14454445
   -0.13961990
   -0.10558796
K-point     7 -0.43750000  0.31250000 -0.06250000  0.01562500
Spin component 1
   -0.31180493
   -0.24737551
   -0.21274345
   -0.18935039
   -0.16903145
   -0.15505438
   -0.14075652
   -0.10380535
K-point    15 -0.31250000 -0.18750000 -0.06250000  0.01562500
Spin component 1
   -0.39572014
   -0.28128275
   -0.25077384
   -0.19831275
   -0.12656002
   -0.11427649
   -0.10298544
   -0.06107869
K-point    23 -0.18750000 -0.18750000 -0.43750000  0.01562500
Spin component 1
   -0.40456549
   -0.38747134
   -0.17208587
   -0.13579084
   -0.10889015
   -0.10165320
   -0.10151293
   -0.09520938
K-point    31 -0.06250000  0.43750000  0.43750000  0.01562500
Spin component 1
   -0.33688894
   -0.32054978
   -0.27165413
   -0.25638118
   -0.12490603
   -0.09543687
   -0.08926305
   -0.06866929
K-point    39  0.06250000 -0.18750000 -0.43750000  0.01562500
Spin component 1
   -0.42182369
   -0.40454792
   -0.18408590
   -0.14583011
   -0.11610806
   -0.10609961
   -0.04461002
   -0.04367269
K-point    47  0.18750000  0.31250000  0.31250000  0.01562500
Spin component 1
   -0.38325024
   -0.33333820
   -0.19252670
   -0.18405304
   -0.15736510
   -0.09679400
   -0.09344590
   -0.09077641
K-point    55  0.31250000  0.31250000  0.31250000  0.01562500
Spin component 1
   -0.34956689
   -0.30152509
   -0.16852503
   -0.16528280
   -0.16454429
   -0.14501226
   -0.14244318
   -0.09395384
K-point    63  0.43750000  0.31250000  0.43750000  0.01562500
Spin component 1
   -0.28877824
   -0.27389194
   -0.22730858
   -0.21477850
   -0.13604287
   -0.13567675
   -0.12946542
   -0.11742365
K-point     8 -0.31250000 -0.43750000 -0.43750000  0.01562500
Spin component 1
   -0.28926993
   -0.27435484
   -0.22874822
   -0.21611254
   -0.13377569
   -0.13369130
   -0.12869965
   -0.11632094
K-point    16 -0.31250000 -0.06250000 -0.06250000  0.01562500
Spin component 1
   -0.41281809
   -0.29628617
   -0.26484747
   -0.21208457
   -0.12708124
   -0.10852177
   -0.05686044
   -0.05164679
K-point    24 -0.18750000 -0.18750000 -0.31250000  0.01562500
Spin component 1
   -0.41747911
   -0.36631947
   -0.20943245
   -0.11507378
   -0.10709316
   -0.10320473
   -0.09428759
   -0.08918663
K-point    32  0.06250000 -0.43750000 -0.31250000  0.01562500
Spin component 1
   -0.34927346
   -0.30042878
   -0.28330492
   -0.23773857
   -0.15673194
   -0.11336500
   -0.07051857
   -0.05275573
K-point    40  0.06250000 -0.18750000 -0.31250000  0.01562500
Spin component 1
   -0.43486160
   -0.38314554
   -0.22292759
   -0.12410923
   -0.11083468
   -0.09470026
   -0.04746470
   -0.04387767
K-point    48  0.18750000  0.43750000  0.31250000  0.01562500
Spin component 1
   -0.33288266
   -0.28532137
   -0.26807798
   -0.22484032
   -0.15104178
   -0.11847562
   -0.08218430
   -0.08125465
K-point    56  0.43750000 -0.43750000 -0.18750000  0.01562500
Spin component 1
   -0.26112128
   -0.20342593
   -0.20143984
   -0.20026277
   -0.16658205
   -0.16511520
   -0.15855813
   -0.15273668
K-point    64  0.43750000  0.43750000 -0.31250000  0.01562500
Spin component 1
   -0.25423528
   -0.21646452
   -0.19817693
   -0.19626792
   -0.17379045
   -0.17218800
   -0.15167272
   -0.15086917
