Number of k-points   128
Number of spin components 1
Number of electrons  24.00    
Number of eigenvalues     12
Fermi energy (in atomic units)    -0.034344
Unit cell vectors
   19.162525    0.000000    0.002862
    0.000000    3.993504    0.000000
  -12.777960    0.000000    6.884991
K-point     1 -0.43750000 -0.43750000 -0.31250000  0.00781250
Spin component 1
   -0.25270249
   -0.21397446
   -0.16842948
   -0.16507327
   -0.15352886
   -0.14600464
   -0.10391395
   -0.09948570
   -0.08055979
   -0.07146250
   -0.05969739
   -0.04908348
K-point    17 -0.43750000  0.06250000  0.31250000  0.00781250
Spin component 1
   -0.45790144
   -0.41561684
   -0.32394497
   -0.30734257
   -0.28262041
   -0.22601722
   -0.21029015
   -0.19051164
   -0.17866682
   -0.16600302
   -0.08208058
   -0.07860940
K-point    33 -0.31250000 -0.18750000 -0.06250000  0.00781250
Spin component 1
   -0.40075222
   -0.35294051
   -0.35000996
   -0.29945704
   -0.28007422
   -0.24152287
   -0.15295968
   -0.12443767
   -0.10621458
   -0.09914265
   -0.08383121
   -0.04175030
K-point    49 -0.18750000 -0.43750000 -0.18750000  0.00781250
Spin component 1
   -0.23651177
   -0.20873362
   -0.20387947
   -0.16044655
   -0.14664188
   -0.14045997
   -0.11333310
   -0.09526083
   -0.08339921
   -0.07484662
   -0.06668395
   -0.04952439
K-point    65 -0.18750000 -0.18750000  0.18750000  0.00781250
Spin component 1
   -0.42937748
   -0.37424176
   -0.30988416
   -0.23986903
   -0.22922400
   -0.21848834
   -0.19693226
   -0.16548309
   -0.15257547
   -0.13348229
   -0.08046280
   -0.05922339
K-point    81 -0.06250000  0.43750000  0.43750000  0.00781250
Spin component 1
   -0.22917065
   -0.22123341
   -0.19972787
   -0.17452645
   -0.13060434
   -0.12526295
   -0.11472841
   -0.10842193
   -0.08393034
   -0.07898776
   -0.05892624
   -0.05518687
K-point    97  0.06250000 -0.18750000  0.06250000  0.00781250
Spin component 1
   -0.42829674
   -0.35997008
   -0.32173389
   -0.27879374
   -0.24424665
   -0.18222494
   -0.17995230
   -0.16904273
   -0.14502756
   -0.12452505
   -0.09584186
   -0.05064459
K-point   113  0.31250000 -0.43750000  0.18750000  0.00781250
Spin component 1
   -0.22564213
   -0.21746782
   -0.19540444
   -0.17149810
   -0.15427172
   -0.14308761
   -0.10638876
   -0.09358628
   -0.08022362
   -0.07671305
   -0.06620339
   -0.05565111
K-point     2 -0.43750000 -0.43750000 -0.18750000  0.00781250
Spin component 1
   -0.24323284
   -0.19535994
   -0.18615316
   -0.17782368
   -0.16461209
   -0.14513989
   -0.09942604
   -0.09539598
   -0.07879803
   -0.07630226
   -0.06096800
   -0.05592754
K-point    18 -0.43750000  0.18750000  0.31250000  0.00781250
Spin component 1
   -0.42318815
   -0.38152465
   -0.29147517
   -0.27518084
   -0.25140026
   -0.19694150
   -0.18204097
   -0.16171142
   -0.15071632
   -0.13853911
   -0.06558320
   -0.06429232
K-point    34 -0.31250000 -0.18750000  0.06250000  0.00781250
Spin component 1
   -0.41995113
   -0.33903750
   -0.32666164
   -0.31238871
   -0.28853005
   -0.18347590
   -0.14444389
   -0.14139431
   -0.13189569
   -0.12042281
   -0.10771429
   -0.04566848
K-point    50 -0.18750000 -0.43750000  0.06250000  0.00781250
Spin component 1
   -0.26474208
   -0.19654779
   -0.18917116
   -0.15510956
   -0.15321519
   -0.12723833
   -0.11735533
   -0.08843467
   -0.08457760
   -0.08224101
   -0.04564607
   -0.04224194
K-point    66 -0.18750000 -0.18750000  0.31250000  0.00781250
Spin component 1
   -0.41779350
   -0.39323914
   -0.28485357
   -0.27053484
   -0.21405436
   -0.20661080
   -0.20402972
   -0.19271815
   -0.16347157
   -0.12478947
   -0.06317918
   -0.03840969
K-point    82  0.06250000 -0.43750000 -0.18750000  0.00781250
Spin component 1
   -0.26071042
   -0.22033942
   -0.16344577
   -0.15536272
   -0.15436829
   -0.12915506
   -0.10504472
   -0.09746468
   -0.09542670
   -0.07107336
   -0.05440313
   -0.04114114
K-point    98  0.06250000 -0.18750000  0.18750000  0.00781250
Spin component 1
   -0.41287402
   -0.37504257
   -0.32191346
   -0.27863077
   -0.25824872
   -0.22596746
   -0.18017210
   -0.14457596
   -0.13263739
   -0.11367962
   -0.07444403
   -0.03442330
K-point   114  0.31250000 -0.43750000  0.31250000  0.00781250
Spin component 1
   -0.24085631
   -0.19900681
   -0.18939632
   -0.18699085
   -0.14807220
   -0.14043258
   -0.10704719
   -0.09280987
   -0.07928909
   -0.07754314
   -0.06326957
   -0.05510164
K-point     3 -0.43750000 -0.31250000 -0.43750000  0.00781250
Spin component 1
   -0.34828592
   -0.32959865
   -0.22044291
   -0.20550261
   -0.18268432
   -0.16040821
   -0.14770431
   -0.12553617
   -0.10017074
   -0.09427387
   -0.06331925
   -0.04552667
K-point    19 -0.43750000  0.31250000 -0.31250000  0.00781250
Spin component 1
   -0.34827931
   -0.30082089
   -0.24685859
   -0.23310066
   -0.23040127
   -0.12626207
   -0.12097745
   -0.11029610
   -0.09975824
   -0.07818904
   -0.06556978
   -0.05005530
K-point    35 -0.31250000 -0.18750000  0.18750000  0.00781250
Spin component 1
   -0.42767396
   -0.36415684
   -0.31650936
   -0.26712680
   -0.26284052
   -0.19395747
   -0.16146592
   -0.15254381
   -0.14557771
   -0.14112017
   -0.08658646
   -0.06531079
K-point    51 -0.18750000 -0.43750000  0.18750000  0.00781250
Spin component 1
   -0.26475334
   -0.21837598
   -0.16973832
   -0.15516920
   -0.13774998
   -0.13213932
   -0.11402407
   -0.09662726
   -0.08755290
   -0.07603481
   -0.04640137
   -0.04260873
K-point    67 -0.18750000 -0.18750000  0.43750000  0.00781250
Spin component 1
   -0.40089219
   -0.39479391
   -0.32101063
   -0.26351937
   -0.23912341
   -0.22323157
   -0.22028897
   -0.15127536
   -0.12524346
   -0.10800252
   -0.06794277
   -0.03991540
K-point    83  0.06250000 -0.43750000 -0.06250000  0.00781250
Spin component 1
   -0.26717929
   -0.20336929
   -0.18669963
   -0.15643201
   -0.13534802
   -0.13358141
   -0.10719322
   -0.09715256
   -0.08839483
   -0.08164770
   -0.04356921
   -0.03957806
K-point    99  0.06250000 -0.18750000  0.31250000  0.00781250
Spin component 1
   -0.38613205
   -0.37883683
   -0.35525393
   -0.28338448
   -0.26168264
   -0.22747851
   -0.20935429
   -0.11315017
   -0.10739125
   -0.09470299
   -0.07346570
   -0.04161295
K-point   115  0.31250000 -0.31250000  0.18750000  0.00781250
Spin component 1
   -0.31679914
   -0.30496442
   -0.28470505
   -0.23792526
   -0.23478903
   -0.17234946
   -0.12617979
   -0.07709225
   -0.07030740
   -0.06723970
   -0.05378556
   -0.04502058
K-point     4 -0.43750000 -0.31250000  0.31250000  0.00781250
Spin component 1
   -0.35530598
   -0.31548037
   -0.23026091
   -0.21491355
   -0.19479301
   -0.14719583
   -0.13512932
   -0.11090869
   -0.10322330
   -0.09240494
   -0.07088584
   -0.05182157
K-point    20 -0.43750000  0.31250000 -0.18750000  0.00781250
Spin component 1
   -0.33724519
   -0.27621795
   -0.26401359
   -0.26250189
   -0.24767981
   -0.14461860
   -0.11869233
   -0.08743652
   -0.08107270
   -0.06846361
   -0.06095164
   -0.04820551
K-point    36 -0.31250000 -0.18750000  0.31250000  0.00781250
Spin component 1
   -0.42380661
   -0.39063890
   -0.28393801
   -0.24239758
   -0.23589408
   -0.20728333
   -0.19610724
   -0.18342199
   -0.16570517
   -0.14312027
   -0.06187951
   -0.05189909
K-point    52 -0.18750000 -0.43750000  0.31250000  0.00781250
Spin component 1
   -0.25513330
   -0.23320604
   -0.15469049
   -0.15334998
   -0.14763432
   -0.13377288
   -0.10761715
   -0.10336524
   -0.09054643
   -0.06497691
   -0.05992904
   -0.04507020
K-point    68 -0.18750000 -0.06250000 -0.43750000  0.00781250
Spin component 1
   -0.43147591
   -0.39450508
   -0.38058067
   -0.34932584
   -0.29567799
   -0.24811578
   -0.19864390
   -0.17338718
   -0.13343930
   -0.10815150
   -0.07871066
   -0.07709520
K-point    84  0.06250000 -0.43750000  0.06250000  0.00781250
Spin component 1
   -0.26392884
   -0.20572655
   -0.17990398
   -0.15570889
   -0.15418194
   -0.12486653
   -0.11428108
   -0.09206376
   -0.08887115
   -0.07817121
   -0.04902420
   -0.04006562
K-point   100  0.06250000 -0.06250000 -0.43750000  0.00781250
Spin component 1
   -0.42362078
   -0.40873021
   -0.38613603
   -0.33356448
   -0.27176912
   -0.26842325
   -0.22849016
   -0.15231436
   -0.13235762
   -0.11087397
   -0.08466183
   -0.06362714
K-point   116  0.31250000 -0.18750000  0.18750000  0.00781250
Spin component 1
   -0.38306437
   -0.37034492
   -0.35004857
   -0.30009838
   -0.29608573
   -0.22588180
   -0.17721126
   -0.10719348
   -0.10117496
   -0.08517366
   -0.07223554
   -0.05709483
K-point     5 -0.43750000 -0.31250000  0.43750000  0.00781250
Spin component 1
   -0.34791632
   -0.33726465
   -0.19843188
   -0.18623244
   -0.18397337
   -0.17239453
   -0.14458113
   -0.13228894
   -0.11787201
   -0.10563335
   -0.05167132
   -0.05028358
K-point    21 -0.43750000  0.43750000  0.06250000  0.00781250
Spin component 1
   -0.24327661
   -0.20000497
   -0.18094818
   -0.17239646
   -0.16674671
   -0.14965779
   -0.10058718
   -0.09267781
   -0.08048549
   -0.07850625
   -0.05937797
   -0.05414241
K-point    37 -0.31250000 -0.18750000  0.43750000  0.00781250
Spin component 1
   -0.40840569
   -0.40594009
   -0.28411712
   -0.24218025
   -0.23569939
   -0.22213091
   -0.19848743
   -0.19446854
   -0.15313176
   -0.13124018
   -0.05892124
   -0.03991738
K-point    53 -0.18750000 -0.31250000 -0.43750000  0.00781250
Spin component 1
   -0.33003053
   -0.29595336
   -0.28203755
   -0.25443235
   -0.20355011
   -0.16018190
   -0.12634168
   -0.10492891
   -0.08205879
   -0.06140533
   -0.05505765
   -0.04249273
K-point    69 -0.18750000 -0.06250000 -0.31250000  0.00781250
Spin component 1
   -0.41600542
   -0.39592335
   -0.39446153
   -0.34931933
   -0.31041779
   -0.23399203
   -0.22875004
   -0.14852170
   -0.10803571
   -0.10031531
   -0.09455493
   -0.07550505
K-point    85  0.06250000 -0.43750000  0.43750000  0.00781250
Spin component 1
   -0.22011462
   -0.21401071
   -0.20238941
   -0.19273198
   -0.12936694
   -0.12630288
   -0.11691038
   -0.10652509
   -0.07886056
   -0.07830159
   -0.06246864
   -0.05907440
K-point   101  0.06250000 -0.06250000 -0.31250000  0.00781250
Spin component 1
   -0.43962703
   -0.42361111
   -0.35587683
   -0.28292817
   -0.27663820
   -0.27155574
   -0.24014582
   -0.17527745
   -0.15290231
   -0.13353600
   -0.08387796
   -0.04599146
K-point   117  0.31250000  0.31250000  0.06250000  0.00781250
Spin component 1
   -0.33386870
   -0.28837015
   -0.28463856
   -0.23649497
   -0.22087484
   -0.18608564
   -0.10782920
   -0.08371706
   -0.07696808
   -0.06975804
   -0.06518784
   -0.04182382
K-point     6 -0.43750000 -0.18750000 -0.43750000  0.00781250
Spin component 1
   -0.41593534
   -0.39629993
   -0.28088317
   -0.26441471
   -0.23780079
   -0.21237126
   -0.19785236
   -0.17881888
   -0.14385879
   -0.14030896
   -0.06122933
   -0.04858529
K-point    22 -0.31250000 -0.43750000 -0.43750000  0.00781250
Spin component 1
   -0.24715595
   -0.22616798
   -0.17178305
   -0.16392978
   -0.14178970
   -0.13635939
   -0.11376773
   -0.09717007
   -0.08071004
   -0.07857971
   -0.05652282
   -0.05095919
K-point    38 -0.31250000 -0.06250000 -0.43750000  0.00781250
Spin component 1
   -0.44435132
   -0.41577790
   -0.34974391
   -0.31119542
   -0.29890528
   -0.23066300
   -0.22204369
   -0.17861119
   -0.15681269
   -0.13670418
   -0.08064400
   -0.06772561
K-point    54 -0.18750000 -0.31250000 -0.31250000  0.00781250
Spin component 1
   -0.31552277
   -0.29632187
   -0.29577903
   -0.25447036
   -0.21632144
   -0.14960071
   -0.14893170
   -0.08941083
   -0.06734795
   -0.06361275
   -0.05146285
   -0.04341474
K-point    70 -0.18750000 -0.06250000 -0.18750000  0.00781250
Spin component 1
   -0.42908435
   -0.39975179
   -0.38911453
   -0.31433025
   -0.29494963
   -0.28564283
   -0.20998299
   -0.13353816
   -0.12906342
   -0.12639438
   -0.09412141
   -0.05340331
K-point    86  0.06250000 -0.31250000 -0.43750000  0.00781250
Spin component 1
   -0.32249199
   -0.30920050
   -0.28740806
   -0.24018615
   -0.18110891
   -0.17941308
   -0.14967191
   -0.08887615
   -0.08112474
   -0.06417050
   -0.05562550
   -0.03875127
K-point   102  0.06250000 -0.06250000 -0.18750000  0.00781250
Spin component 1
   -0.45913566
   -0.41200411
   -0.32962339
   -0.31520803
   -0.26111495
   -0.21665299
   -0.21605771
   -0.20318404
   -0.20138084
   -0.14883241
   -0.09373883
   -0.05389243
K-point   118  0.43750000 -0.43750000 -0.31250000  0.00781250
Spin component 1
   -0.25912150
   -0.22524132
   -0.15587330
   -0.15108202
   -0.14983004
   -0.14194439
   -0.11201600
   -0.10450761
   -0.07861778
   -0.06834865
   -0.05549494
   -0.04651954
K-point     7 -0.43750000 -0.18750000 -0.31250000  0.00781250
Spin component 1
   -0.41593684
   -0.36599044
   -0.30975850
   -0.29357088
   -0.29207309
   -0.17927809
   -0.16385295
   -0.15107815
   -0.14353034
   -0.11753041
   -0.07000724
   -0.06133829
K-point    23 -0.31250000 -0.43750000  0.06250000  0.00781250
Spin component 1
   -0.25668608
   -0.18830791
   -0.18463718
   -0.17598383
   -0.15218387
   -0.14722833
   -0.10802429
   -0.08831529
   -0.08139664
   -0.07908838
   -0.05318074
   -0.04744771
K-point    39 -0.31250000 -0.06250000 -0.31250000  0.00781250
Spin component 1
   -0.43656836
   -0.37770557
   -0.37231131
   -0.36257358
   -0.32105270
   -0.22347761
   -0.19773510
   -0.16934307
   -0.13328901
   -0.10918264
   -0.09678667
   -0.07168751
K-point    55 -0.18750000 -0.31250000 -0.06250000  0.00781250
Spin component 1
   -0.35021256
   -0.29270524
   -0.25593286
   -0.24249221
   -0.21314079
   -0.15389028
   -0.10784543
   -0.10177939
   -0.09718967
   -0.07919363
   -0.06837928
   -0.04509123
K-point    71 -0.18750000 -0.06250000 -0.06250000  0.00781250
Spin component 1
   -0.45241500
   -0.39207460
   -0.35140005
   -0.33636398
   -0.30684126
   -0.23478465
   -0.17795365
   -0.16524166
   -0.16437180
   -0.15024414
   -0.10764007
   -0.04978586
K-point    87  0.06250000 -0.31250000 -0.31250000  0.00781250
Spin component 1
   -0.33817331
   -0.32250447
   -0.25966776
   -0.19533030
   -0.18952935
   -0.18091693
   -0.15633093
   -0.10770424
   -0.08895690
   -0.06866105
   -0.06283019
   -0.03892699
K-point   103  0.06250000 -0.06250000 -0.06250000  0.00781250
Spin component 1
   -0.46697604
   -0.38905122
   -0.36690520
   -0.26564308
   -0.25817676
   -0.25124770
   -0.23942085
   -0.17233339
   -0.16284062
   -0.15313412
   -0.12708886
   -0.07835070
K-point   119  0.43750000 -0.43750000  0.06250000  0.00781250
Spin component 1
   -0.22506960
   -0.22226375
   -0.18322681
   -0.16954682
   -0.16087703
   -0.15133469
   -0.10007405
   -0.09482172
   -0.08166645
   -0.07874878
   -0.06140538
   -0.05667853
K-point     8 -0.43750000 -0.18750000  0.06250000  0.00781250
Spin component 1
   -0.40395870
   -0.34772205
   -0.33191393
   -0.31501184
   -0.30356423
   -0.21826426
   -0.14743724
   -0.12339600
   -0.10770694
   -0.09787238
   -0.09399262
   -0.04578987
K-point    24 -0.31250000 -0.43750000  0.18750000  0.00781250
Spin component 1
   -0.26313569
   -0.21148480
   -0.17239239
   -0.15338642
   -0.15204182
   -0.13501886
   -0.11467065
   -0.09498105
   -0.08199125
   -0.07570974
   -0.04776941
   -0.04468633
K-point    40 -0.31250000 -0.06250000 -0.18750000  0.00781250
Spin component 1
   -0.41722745
   -0.40422964
   -0.38384986
   -0.33293850
   -0.32858417
   -0.25617477
   -0.20637563
   -0.13059661
   -0.12432393
   -0.10398980
   -0.09165193
   -0.07393967
K-point    56 -0.18750000 -0.31250000  0.06250000  0.00781250
Spin component 1
   -0.36133011
   -0.28060736
   -0.27452635
   -0.21336234
   -0.19724077
   -0.14077864
   -0.12244727
   -0.10715796
   -0.09287068
   -0.08609924
   -0.07946110
   -0.06339937
K-point    72 -0.18750000 -0.06250000  0.06250000  0.00781250
Spin component 1
   -0.46415545
   -0.37820592
   -0.37231913
   -0.30383353
   -0.28857696
   -0.21760514
   -0.20000969
   -0.18072257
   -0.16264865
   -0.14703621
   -0.13524954
   -0.07219413
K-point    88  0.06250000 -0.31250000 -0.18750000  0.00781250
Spin component 1
   -0.35659741
   -0.31168928
   -0.23618872
   -0.22314026
   -0.17212230
   -0.13856255
   -0.13736305
   -0.12843628
   -0.12639344
   -0.07813087
   -0.06164733
   -0.04992741
K-point   104  0.06250000 -0.06250000  0.06250000  0.00781250
Spin component 1
   -0.46305367
   -0.39380613
   -0.35474636
   -0.31078481
   -0.27583098
   -0.21039677
   -0.20905294
   -0.19751742
   -0.17157949
   -0.15107654
   -0.11690369
   -0.06265118
K-point   120  0.43750000 -0.31250000 -0.18750000  0.00781250
Spin component 1
   -0.35159836
   -0.28358735
   -0.25364401
   -0.24249592
   -0.23772507
   -0.11705211
   -0.11076978
   -0.10667889
   -0.09932212
   -0.08416040
   -0.06821630
   -0.05418028
K-point     9 -0.43750000 -0.18750000  0.18750000  0.00781250
Spin component 1
   -0.41933015
   -0.34775647
   -0.31694474
   -0.30378182
   -0.30032081
   -0.16241586
   -0.15908423
   -0.14842192
   -0.13544849
   -0.12456360
   -0.09261198
   -0.05387827
K-point    25 -0.31250000 -0.43750000  0.31250000  0.00781250
Spin component 1
   -0.25992729
   -0.23181361
   -0.15376483
   -0.15224388
   -0.14025874
   -0.13048760
   -0.11999682
   -0.10649685
   -0.07800292
   -0.06984283
   -0.05167516
   -0.04814675
K-point    41 -0.31250000 -0.06250000 -0.06250000  0.00781250
Spin component 1
   -0.43513382
   -0.38652912
   -0.38383666
   -0.33242179
   -0.31201833
   -0.27243085
   -0.18054499
   -0.15058498
   -0.12878505
   -0.12207252
   -0.10273733
   -0.05489952
K-point    57 -0.18750000 -0.31250000  0.18750000  0.00781250
Spin component 1
   -0.36133199
   -0.30838413
   -0.24768178
   -0.18429756
   -0.17336009
   -0.16559367
   -0.14299447
   -0.12132473
   -0.10663897
   -0.08669341
   -0.06441194
   -0.06222049
K-point    73 -0.18750000 -0.06250000  0.18750000  0.00781250
Spin component 1
   -0.46415294
   -0.40825856
   -0.34269884
   -0.27068166
   -0.26002445
   -0.24857487
   -0.22698694
   -0.19281237
   -0.18080377
   -0.16074866
   -0.09985679
   -0.07194961
K-point    89  0.06250000 -0.31250000 -0.06250000  0.00781250
Spin component 1
   -0.36402762
   -0.29042963
   -0.26984927
   -0.18018431
   -0.17395608
   -0.16507153
   -0.15398183
   -0.10033485
   -0.09610748
   -0.08224112
   -0.07524129
   -0.07203230
K-point   105  0.06250000 -0.06250000  0.18750000  0.00781250
Spin component 1
   -0.44741681
   -0.40916325
   -0.35496721
   -0.31056680
   -0.29030082
   -0.25641123
   -0.20896616
   -0.17097448
   -0.15823144
   -0.13937835
   -0.09147254
   -0.04531958
K-point   121  0.43750000 -0.18750000  0.18750000  0.00781250
Spin component 1
   -0.40441253
   -0.33988899
   -0.32829905
   -0.32515078
   -0.31104461
   -0.19403737
   -0.16961480
   -0.11907071
   -0.10942697
   -0.09762168
   -0.08999917
   -0.05118488
K-point    10 -0.43750000 -0.18750000  0.43750000  0.00781250
Spin component 1
   -0.41547287
   -0.40440379
   -0.25607327
   -0.24256922
   -0.24037621
   -0.22664008
   -0.19425966
   -0.18014994
   -0.16934644
   -0.15552849
   -0.05089680
   -0.04804698
K-point    26 -0.31250000 -0.31250000 -0.43750000  0.00781250
Spin component 1
   -0.34230082
   -0.31575249
   -0.25354817
   -0.22019155
   -0.20702590
   -0.14507612
   -0.14417153
   -0.11099347
   -0.08707202
   -0.07294661
   -0.06908166
   -0.04292683
K-point    42 -0.31250000 -0.06250000  0.06250000  0.00781250
Spin component 1
   -0.45460939
   -0.37256546
   -0.35975594
   -0.34519239
   -0.32119858
   -0.21238326
   -0.17025841
   -0.16899042
   -0.15815189
   -0.14508839
   -0.13030387
   -0.05755616
K-point    58 -0.18750000 -0.31250000  0.31250000  0.00781250
Spin component 1
   -0.35021867
   -0.32641318
   -0.22458427
   -0.21182626
   -0.15782816
   -0.15541502
   -0.15164349
   -0.14231718
   -0.11883901
   -0.08049634
   -0.05696987
   -0.04541410
K-point    74 -0.18750000 -0.06250000  0.31250000  0.00781250
Spin component 1
   -0.45240919
   -0.42757726
   -0.31707382
   -0.30227884
   -0.24480036
   -0.23553349
   -0.23462393
   -0.22193359
   -0.19118459
   -0.15137180
   -0.07845476
   -0.04938373
K-point    90  0.06250000 -0.31250000  0.06250000  0.00781250
Spin component 1
   -0.36030727
   -0.29459325
   -0.25898331
   -0.21937988
   -0.18550277
   -0.13541120
   -0.13008548
   -0.12211555
   -0.10452116
   -0.07973655
   -0.07211802
   -0.05633976
K-point   106  0.06250000 -0.06250000  0.31250000  0.00781250
Spin component 1
   -0.42027241
   -0.41303185
   -0.38898499
   -0.31544571
   -0.29387179
   -0.25775932
   -0.23966950
   -0.13745258
   -0.13002303
   -0.11860817
   -0.08952323
   -0.05590568
K-point   122  0.43750000 -0.06250000  0.06250000  0.00781250
Spin component 1
   -0.41573933
   -0.41122286
   -0.36918139
   -0.35198847
   -0.30680693
   -0.28230218
   -0.17943373
   -0.15052405
   -0.11428494
   -0.10719751
   -0.08970280
   -0.07392861
K-point    11 -0.43750000 -0.06250000  0.43750000  0.00781250
Spin component 1
   -0.45007514
   -0.43886077
   -0.28746057
   -0.27357420
   -0.27138141
   -0.25700028
   -0.22352699
   -0.20895295
   -0.19844685
   -0.18401763
   -0.06439793
   -0.06026924
K-point    27 -0.31250000 -0.31250000 -0.31250000  0.00781250
Spin component 1
   -0.33495704
   -0.28036254
   -0.27417677
   -0.26647202
   -0.22646431
   -0.13907937
   -0.12410517
   -0.10490391
   -0.08202916
   -0.06075938
   -0.05696487
   -0.04780938
K-point    43 -0.31250000 -0.06250000  0.18750000  0.00781250
Spin component 1
   -0.46243605
   -0.39796593
   -0.34954720
   -0.29913578
   -0.29440939
   -0.22286479
   -0.18968552
   -0.17937997
   -0.17304283
   -0.16904725
   -0.10744468
   -0.07852854
K-point    59 -0.18750000 -0.31250000  0.43750000  0.00781250
Spin component 1
   -0.33369491
   -0.32823106
   -0.25783407
   -0.20589428
   -0.18197089
   -0.16977651
   -0.16300152
   -0.11008565
   -0.08427067
   -0.06947546
   -0.06717308
   -0.03925937
K-point    75 -0.18750000 -0.06250000  0.43750000  0.00781250
Spin component 1
   -0.43535487
   -0.42906905
   -0.35412989
   -0.29504462
   -0.27030794
   -0.25366639
   -0.25105313
   -0.17786104
   -0.15120602
   -0.13300075
   -0.08227051
   -0.05326906
K-point    91  0.06250000 -0.31250000  0.18750000  0.00781250
Spin component 1
   -0.34551309
   -0.30880703
   -0.25903140
   -0.21939809
   -0.19792968
   -0.17223124
   -0.13112371
   -0.10412798
   -0.09451114
   -0.07193228
   -0.06261802
   -0.04113537
K-point   107  0.06250000 -0.06250000  0.43750000  0.00781250
Spin component 1
   -0.41203645
   -0.40533265
   -0.38200663
   -0.36692685
   -0.28655158
   -0.26092822
   -0.20080128
   -0.17346402
   -0.10104560
   -0.09783742
   -0.08966585
   -0.08037794
K-point   123  0.43750000  0.18750000  0.06250000  0.00781250
Spin component 1
   -0.38161062
   -0.37722260
   -0.33559543
   -0.31868567
   -0.27498269
   -0.25114155
   -0.15163687
   -0.12460816
   -0.09347336
   -0.08763019
   -0.07024476
   -0.05745992
K-point    12 -0.43750000  0.06250000 -0.43750000  0.00781250
Spin component 1
   -0.45056443
   -0.43061488
   -0.31312146
   -0.29615581
   -0.26862070
   -0.24209059
   -0.22701928
   -0.20845853
   -0.17122760
   -0.16765574
   -0.07451419
   -0.06293262
K-point    28 -0.31250000 -0.31250000  0.18750000  0.00781250
Spin component 1
   -0.35966069
   -0.29895730
   -0.25353662
   -0.20740090
   -0.20482703
   -0.14485924
   -0.11429894
   -0.11092220
   -0.09717154
   -0.09365362
   -0.07318962
   -0.06213084
K-point    44 -0.31250000 -0.06250000  0.31250000  0.00781250
Spin component 1
   -0.45851433
   -0.42490359
   -0.31612420
   -0.27333769
   -0.26683693
   -0.23695156
   -0.22516677
   -0.21306420
   -0.19411201
   -0.17097476
   -0.07799073
   -0.06410738
K-point    60 -0.18750000 -0.18750000 -0.43750000  0.00781250
Spin component 1
   -0.39706746
   -0.36078665
   -0.34692033
   -0.31648125
   -0.26363376
   -0.21717700
   -0.17103802
   -0.14660575
   -0.11064019
   -0.08567361
   -0.06445207
   -0.05842015
K-point    76 -0.18750000  0.31250000 -0.18750000  0.00781250
Spin component 1
   -0.32822500
   -0.29978539
   -0.29051039
   -0.21977661
   -0.20584675
   -0.19751940
   -0.13050464
   -0.07865469
   -0.07459959
   -0.06647685
   -0.06496132
   -0.03912647
K-point    92  0.06250000 -0.31250000  0.43750000  0.00781250
Spin component 1
   -0.31164546
   -0.30518600
   -0.28440978
   -0.27054424
   -0.19475298
   -0.17208009
   -0.12736658
   -0.10681778
   -0.06588577
   -0.06427182
   -0.04639567
   -0.04359627
K-point   108  0.06250000  0.31250000  0.31250000  0.00781250
Spin component 1
   -0.31998733
   -0.31238025
   -0.29024232
   -0.22395827
   -0.20096769
   -0.17378888
   -0.15484111
   -0.07987577
   -0.07749380
   -0.06620599
   -0.05940703
   -0.03783925
K-point   124  0.43750000  0.31250000 -0.06250000  0.00781250
Spin component 1
   -0.33688107
   -0.28350852
   -0.26744153
   -0.25129514
   -0.24242565
   -0.16556915
   -0.10092828
   -0.08535930
   -0.07945384
   -0.07344323
   -0.06458972
   -0.04518389
K-point    13 -0.43750000  0.06250000 -0.31250000  0.00781250
Spin component 1
   -0.45057084
   -0.39980408
   -0.34275614
   -0.32566845
   -0.32492944
   -0.20889699
   -0.19088013
   -0.17749369
   -0.17080015
   -0.14303169
   -0.08877342
   -0.07514759
K-point    29 -0.31250000 -0.31250000  0.31250000  0.00781250
Spin component 1
   -0.35595319
   -0.32405759
   -0.22371706
   -0.18633925
   -0.17961866
   -0.15602187
   -0.14622703
   -0.13054226
   -0.11932446
   -0.09484253
   -0.05679041
   -0.05361120
K-point    45 -0.31250000 -0.06250000  0.43750000  0.00781250
Spin component 1
   -0.44289289
   -0.44044571
   -0.31637204
   -0.27301249
   -0.26648959
   -0.25254131
   -0.22822125
   -0.22424147
   -0.18054812
   -0.15817429
   -0.07265082
   -0.05190500
K-point    61 -0.18750000 -0.18750000 -0.31250000  0.00781250
Spin component 1
   -0.38183597
   -0.36197579
   -0.36073801
   -0.31648485
   -0.27791617
   -0.20372492
   -0.19948877
   -0.12401649
   -0.08630652
   -0.08211738
   -0.07468269
   -0.05801864
K-point    77 -0.18750000  0.43750000  0.43750000  0.00781250
Spin component 1
   -0.23930727
   -0.23656218
   -0.17620831
   -0.16040676
   -0.13701274
   -0.12565820
   -0.11968293
   -0.09790640
   -0.08960693
   -0.07689400
   -0.05511067
   -0.05093682
K-point    93  0.06250000 -0.18750000 -0.43750000  0.00781250
Spin component 1
   -0.38929828
   -0.37477361
   -0.35241809
   -0.30106758
   -0.24014116
   -0.23713763
   -0.19938679
   -0.12684556
   -0.10955670
   -0.08794055
   -0.06931018
   -0.04768206
K-point   109  0.06250000  0.43750000 -0.31250000  0.00781250
Spin component 1
   -0.24495411
   -0.22923729
   -0.17875508
   -0.15775432
   -0.14081145
   -0.12878701
   -0.10871425
   -0.10591853
   -0.09039905
   -0.07273278
   -0.06045555
   -0.04632966
K-point   125  0.43750000  0.31250000  0.06250000  0.00781250
Spin component 1
   -0.31548726
   -0.31145254
   -0.27084894
   -0.25474157
   -0.21628998
   -0.19469410
   -0.10532557
   -0.08444035
   -0.06974219
   -0.06795610
   -0.05221797
   -0.04722852
K-point    14 -0.43750000  0.06250000 -0.18750000  0.00781250
Spin component 1
   -0.43888079
   -0.37322561
   -0.36175795
   -0.35814239
   -0.34417313
   -0.22319157
   -0.19864307
   -0.14265186
   -0.13209398
   -0.12049371
   -0.11260432
   -0.06501098
K-point    30 -0.31250000 -0.31250000  0.43750000  0.00781250
Spin component 1
   -0.34120207
   -0.33863693
   -0.22367900
   -0.18645405
   -0.17984942
   -0.16864281
   -0.14694722
   -0.14052890
   -0.10959596
   -0.08624831
   -0.05788167
   -0.04364734
K-point    46 -0.31250000  0.31250000  0.06250000  0.00781250
Spin component 1
   -0.35224396
   -0.27451821
   -0.26372299
   -0.25039563
   -0.22649696
   -0.13516963
   -0.10577858
   -0.09610907
   -0.09101263
   -0.08437483
   -0.07849037
   -0.04999846
K-point    62 -0.18750000 -0.18750000 -0.18750000  0.00781250
Spin component 1
   -0.39480268
   -0.36573835
   -0.35540961
   -0.28171987
   -0.26343373
   -0.25439389
   -0.18089856
   -0.10908260
   -0.10646156
   -0.10244091
   -0.07698598
   -0.03999475
K-point    78 -0.06250000 -0.43750000 -0.31250000  0.00781250
Spin component 1
   -0.22987158
   -0.21997239
   -0.20286452
   -0.16710140
   -0.13563985
   -0.12838478
   -0.11758461
   -0.10316431
   -0.08386934
   -0.07714256
   -0.06340184
   -0.05142577
K-point    94  0.06250000 -0.18750000 -0.31250000  0.00781250
Spin component 1
   -0.40519665
   -0.38929458
   -0.32276757
   -0.25182550
   -0.24555851
   -0.23994788
   -0.21000662
   -0.14873037
   -0.12729918
   -0.10838410
   -0.06862373
   -0.03441409
K-point   110  0.18750000 -0.43750000  0.06250000  0.00781250
Spin component 1
   -0.25509946
   -0.20314664
   -0.17845424
   -0.17001138
   -0.15405969
   -0.13628307
   -0.11358466
   -0.08920038
   -0.08406538
   -0.07697716
   -0.05793358
   -0.04401255
K-point   126  0.43750000  0.43750000 -0.43750000  0.00781250
Spin component 1
   -0.25275866
   -0.24334188
   -0.14979771
   -0.14676183
   -0.13363301
   -0.12812514
   -0.12469292
   -0.11919671
   -0.06838196
   -0.06343980
   -0.05849415
   -0.05510197
K-point    15 -0.43750000  0.06250000  0.06250000  0.00781250
Spin component 1
   -0.43840285
   -0.38122175
   -0.36541344
   -0.34824889
   -0.33610688
   -0.24837764
   -0.17522357
   -0.14886093
   -0.13015134
   -0.11859436
   -0.11712862
   -0.05912935
K-point    31 -0.31250000 -0.18750000 -0.43750000  0.00781250
Spin component 1
   -0.40978343
   -0.38170470
   -0.31666021
   -0.27926476
   -0.26687240
   -0.20020207
   -0.19331303
   -0.15207342
   -0.13026101
   -0.11154193
   -0.06685245
   -0.05161204
K-point    47 -0.31250000  0.43750000 -0.06250000  0.00781250
Spin component 1
   -0.24101575
   -0.20294038
   -0.19553100
   -0.15943781
   -0.15502497
   -0.15347510
   -0.10676708
   -0.09103959
   -0.08216889
   -0.07790235
   -0.06338821
   -0.05035461
K-point    63 -0.18750000 -0.18750000 -0.06250000  0.00781250
Spin component 1
   -0.41779695
   -0.35820953
   -0.31844884
   -0.30378857
   -0.27443829
   -0.20505975
   -0.15080643
   -0.13976195
   -0.13793320
   -0.12369765
   -0.08801736
   -0.03866547
K-point    79 -0.06250000 -0.43750000 -0.18750000  0.00781250
Spin component 1
   -0.25116657
   -0.21711272
   -0.17945659
   -0.15631258
   -0.15420859
   -0.12704956
   -0.11679392
   -0.09618532
   -0.08785475
   -0.07117234
   -0.06276481
   -0.04374279
K-point    95  0.06250000 -0.18750000 -0.18750000  0.00781250
Spin component 1
   -0.42443102
   -0.37788563
   -0.29717198
   -0.28307521
   -0.22988330
   -0.18766286
   -0.18696687
   -0.17490937
   -0.17319424
   -0.12236998
   -0.07579332
   -0.04271657
K-point   111  0.18750000 -0.43750000  0.31250000  0.00781250
Spin component 1
   -0.22399975
   -0.21078202
   -0.20570274
   -0.18222624
   -0.13893492
   -0.13567697
   -0.11319307
   -0.09677980
   -0.07909606
   -0.07750299
   -0.06614305
   -0.05665081
K-point   127  0.43750000  0.43750000 -0.18750000  0.00781250
Spin component 1
   -0.25588867
   -0.20030882
   -0.17242732
   -0.17071972
   -0.15707291
   -0.14954365
   -0.10314743
   -0.09518083
   -0.08101746
   -0.07364717
   -0.05440859
   -0.04957146
K-point    16 -0.43750000  0.06250000  0.18750000  0.00781250
Spin component 1
   -0.45399328
   -0.38124390
   -0.35006567
   -0.33637753
   -0.33320174
   -0.19039631
   -0.18774104
   -0.17466819
   -0.16034780
   -0.15052549
   -0.11467550
   -0.06670441
K-point    32 -0.31250000 -0.18750000 -0.31250000  0.00781250
Spin component 1
   -0.40211139
   -0.34427326
   -0.33876897
   -0.32944892
   -0.28840482
   -0.19340602
   -0.16969583
   -0.14358071
   -0.11056051
   -0.08679741
   -0.07645444
   -0.05712419
K-point    48 -0.31250000  0.43750000  0.43750000  0.00781250
Spin component 1
   -0.24727503
   -0.24406113
   -0.15340284
   -0.15108084
   -0.14243423
   -0.12909917
   -0.12102991
   -0.10662692
   -0.07924034
   -0.06844527
   -0.05633543
   -0.05101741
K-point    64 -0.18750000 -0.18750000  0.06250000  0.00781250
Spin component 1
   -0.42937907
   -0.34475475
   -0.33882987
   -0.27204434
   -0.25672399
   -0.18894519
   -0.17137537
   -0.15275620
   -0.13534249
   -0.12292280
   -0.11146873
   -0.05937911
K-point    80 -0.06250000  0.18750000 -0.43750000  0.00781250
Spin component 1
   -0.37789740
   -0.37126330
   -0.34852119
   -0.33372983
   -0.25462241
   -0.22972176
   -0.17288422
   -0.14713763
   -0.08178780
   -0.07930525
   -0.06964019
   -0.06188005
K-point    96  0.06250000 -0.18750000 -0.06250000  0.00781250
Spin component 1
   -0.43216743
   -0.35535157
   -0.33359043
   -0.23502605
   -0.22782689
   -0.22060881
   -0.20897858
   -0.14458387
   -0.13666039
   -0.12683377
   -0.10446536
   -0.06528540
K-point   112  0.18750000 -0.43750000  0.43750000  0.00781250
Spin component 1
   -0.23615229
   -0.21084785
   -0.19448574
   -0.18210761
   -0.13553197
   -0.13175061
   -0.11485169
   -0.09682665
   -0.08330372
   -0.07882137
   -0.05976975
   -0.05599074
K-point   128  0.43750000  0.43750000  0.43750000  0.00781250
Spin component 1
   -0.25273871
   -0.23725308
   -0.15249209
   -0.14736635
   -0.14655610
   -0.13686371
   -0.11603668
   -0.10946252
   -0.07440420
   -0.06817482
   -0.05784872
   -0.05055845
