Number of k-points   128
Number of spin components 1
Number of electrons  24.00    
Number of eigenvalues     12
Fermi energy (in atomic units)    -0.003285
Unit cell vectors
   18.618581    0.000000    0.002627
    0.000000    3.890644    0.000000
  -12.415305    0.000000    6.709279
K-point     1 -0.43750000 -0.43750000 -0.31250000  0.00781250
Spin component 1
   -0.24583905
   -0.20336912
   -0.15260377
   -0.14971852
   -0.13710941
   -0.12900415
   -0.08098767
   -0.07597186
   -0.05787991
   -0.04552193
   -0.03260028
   -0.02040721
K-point    17 -0.43750000  0.18750000  0.31250000  0.00781250
Spin component 1
   -0.42893007
   -0.38441319
   -0.28748039
   -0.26973162
   -0.24445763
   -0.18494011
   -0.16883055
   -0.14486541
   -0.13329412
   -0.11986249
   -0.04084590
   -0.03781177
K-point    33 -0.31250000 -0.18750000  0.06250000  0.00781250
Spin component 1
   -0.42549639
   -0.33855682
   -0.32566232
   -0.31023211
   -0.28400027
   -0.17035796
   -0.12693164
   -0.12215954
   -0.11294369
   -0.10058850
   -0.08645778
   -0.01688782
K-point    49 -0.18750000 -0.43750000  0.06250000  0.00781250
Spin component 1
   -0.25891251
   -0.18425835
   -0.17641019
   -0.13911154
   -0.13567080
   -0.10790446
   -0.09563028
   -0.06486935
   -0.06011248
   -0.05767586
   -0.01679975
   -0.01206906
K-point    65 -0.18750000 -0.18750000  0.18750000  0.00781250
Spin component 1
   -0.43557419
   -0.37654387
   -0.30743171
   -0.23176528
   -0.21983977
   -0.20862661
   -0.18431584
   -0.15055371
   -0.13579703
   -0.11301374
   -0.05599566
   -0.03380493
K-point    81  0.06250000 -0.43750000  0.06250000  0.00781250
Spin component 1
   -0.25802236
   -0.19456702
   -0.16589575
   -0.13965783
   -0.13686696
   -0.10491616
   -0.09282378
   -0.06864222
   -0.06492770
   -0.05285695
   -0.02105660
   -0.00958547
K-point    97  0.06250000 -0.06250000 -0.31250000  0.00781250
Spin component 1
   -0.44652878
   -0.42921001
   -0.35674605
   -0.27845398
   -0.27174402
   -0.26527098
   -0.23166107
   -0.16101980
   -0.13558786
   -0.11269534
   -0.06002793
   -0.01649766
K-point   113  0.31250000 -0.31250000  0.18750000  0.00781250
Spin component 1
   -0.31492228
   -0.30227077
   -0.28017752
   -0.22953212
   -0.22635252
   -0.15817971
   -0.10666574
   -0.05136352
   -0.04349896
   -0.03980033
   -0.02526770
   -0.01543909
K-point     2 -0.43750000 -0.31250000 -0.43750000  0.00781250
Spin component 1
   -0.34879627
   -0.32876678
   -0.21048918
   -0.19432006
   -0.16944318
   -0.14493309
   -0.13055036
   -0.10575614
   -0.07761569
   -0.07073777
   -0.03635561
   -0.01638591
K-point    18 -0.43750000  0.31250000 -0.31250000  0.00781250
Spin component 1
   -0.34878250
   -0.29781515
   -0.23919359
   -0.22439331
   -0.22152268
   -0.10647242
   -0.10111926
   -0.08878294
   -0.07739107
   -0.05276654
   -0.03853708
   -0.02143740
K-point    34 -0.31250000 -0.18750000  0.18750000  0.00781250
Spin component 1
   -0.43373914
   -0.36579907
   -0.31446002
   -0.26093773
   -0.25681537
   -0.18170809
   -0.14537978
   -0.13606074
   -0.12700128
   -0.12281215
   -0.06290092
   -0.04095857
K-point    50 -0.18750000 -0.43750000  0.18750000  0.00781250
Spin component 1
   -0.25892683
   -0.20836072
   -0.15478541
   -0.13918468
   -0.11861421
   -0.11222946
   -0.09267553
   -0.07338928
   -0.06346152
   -0.05132971
   -0.01759751
   -0.01248770
K-point    66 -0.18750000 -0.18750000  0.31250000  0.00781250
Spin component 1
   -0.42321536
   -0.39684263
   -0.28039106
   -0.26509020
   -0.20283852
   -0.19551369
   -0.19291763
   -0.18021238
   -0.14812230
   -0.10348187
   -0.03631297
   -0.00849960
K-point    82  0.06250000 -0.31250000 -0.43750000  0.00781250
Spin component 1
   -0.32099388
   -0.30684927
   -0.28316983
   -0.23226206
   -0.16734995
   -0.16563989
   -0.13310094
   -0.06492531
   -0.05577284
   -0.03643415
   -0.02708372
   -0.00847610
K-point    98  0.06250000 -0.06250000 -0.18750000  0.00781250
Spin component 1
   -0.46731683
   -0.41683589
   -0.32870473
   -0.31311906
   -0.25392387
   -0.20623794
   -0.20564328
   -0.19162555
   -0.18968683
   -0.12934268
   -0.07073225
   -0.02713339
K-point   114  0.31250000 -0.18750000  0.18750000  0.00781250
Spin component 1
   -0.38597756
   -0.37249936
   -0.35034558
   -0.29649719
   -0.29279259
   -0.21685231
   -0.16261109
   -0.08509356
   -0.07817625
   -0.06027510
   -0.04632735
   -0.02877832
K-point     3 -0.43750000 -0.31250000  0.31250000  0.00781250
Spin component 1
   -0.35634365
   -0.31357530
   -0.22130262
   -0.20442904
   -0.18269885
   -0.12999726
   -0.11690648
   -0.08926299
   -0.08094996
   -0.06893593
   -0.04498463
   -0.02345699
K-point    19 -0.43750000  0.31250000 -0.18750000  0.00781250
Spin component 1
   -0.33693381
   -0.27123168
   -0.25771092
   -0.25650224
   -0.24013450
   -0.12754410
   -0.09813809
   -0.06320623
   -0.05546265
   -0.04191353
   -0.03339813
   -0.01906567
K-point    35 -0.31250000 -0.18750000  0.31250000  0.00781250
Spin component 1
   -0.42961707
   -0.39411583
   -0.27946440
   -0.23445846
   -0.22718618
   -0.19640202
   -0.18416502
   -0.16932630
   -0.15055557
   -0.12401297
   -0.03488052
   -0.02471666
K-point    51 -0.18750000 -0.43750000  0.31250000  0.00781250
Spin component 1
   -0.24844893
   -0.22462127
   -0.13798153
   -0.13628982
   -0.13010616
   -0.11488084
   -0.08564267
   -0.08056292
   -0.06677036
   -0.03868517
   -0.03385372
   -0.01542032
K-point    67 -0.18750000 -0.18750000  0.43750000  0.00781250
Spin component 1
   -0.40500893
   -0.39865495
   -0.31928137
   -0.25763547
   -0.23070809
   -0.21372976
   -0.20979969
   -0.13471240
   -0.10499496
   -0.08509774
   -0.04245766
   -0.00957430
K-point    83  0.06250000 -0.31250000 -0.31250000  0.00781250
Spin component 1
   -0.33799751
   -0.32101948
   -0.25318668
   -0.18331210
   -0.17702473
   -0.16713692
   -0.14032468
   -0.08594439
   -0.06467279
   -0.04155696
   -0.03539680
   -0.00898312
K-point    99  0.06250000 -0.06250000 -0.06250000  0.00781250
Spin component 1
   -0.47566663
   -0.39232675
   -0.36863837
   -0.25968814
   -0.25163760
   -0.24346409
   -0.23060720
   -0.15680262
   -0.14672320
   -0.13483756
   -0.10817165
   -0.05713943
K-point   115  0.31250000  0.31250000  0.06250000  0.00781250
Spin component 1
   -0.33334614
   -0.28428836
   -0.28013910
   -0.22787098
   -0.21128259
   -0.17328397
   -0.08622777
   -0.05872750
   -0.05076630
   -0.04332215
   -0.03791999
   -0.01201914
K-point     4 -0.43750000 -0.31250000  0.43750000  0.00781250
Spin component 1
   -0.34842635
   -0.33697737
   -0.18665579
   -0.17309379
   -0.17059260
   -0.15809863
   -0.12734388
   -0.11370902
   -0.09722241
   -0.08338566
   -0.02332921
   -0.02167034
K-point    20 -0.43750000  0.43750000 -0.06250000  0.00781250
Spin component 1
   -0.21555460
   -0.21248076
   -0.17001811
   -0.15498054
   -0.14420359
   -0.13366200
   -0.07754994
   -0.07217769
   -0.05795635
   -0.05460752
   -0.03530905
   -0.02958203
K-point    36 -0.31250000 -0.18750000  0.43750000  0.00781250
Spin component 1
   -0.41318110
   -0.41045257
   -0.27952957
   -0.23439364
   -0.22713361
   -0.21269643
   -0.18599185
   -0.18187832
   -0.13654913
   -0.11102234
   -0.03192194
   -0.00990707
K-point    52 -0.18750000 -0.43750000  0.43750000  0.00781250
Spin component 1
   -0.23128283
   -0.22815016
   -0.16185533
   -0.14365997
   -0.11899162
   -0.10537103
   -0.09923865
   -0.07477641
   -0.06558490
   -0.05443436
   -0.02686899
   -0.02268384
K-point    68 -0.18750000 -0.06250000 -0.43750000  0.00781250
Spin component 1
   -0.43764933
   -0.39835260
   -0.38311596
   -0.35000201
   -0.29159746
   -0.23966468
   -0.18698527
   -0.15877885
   -0.11472640
   -0.08536061
   -0.05367209
   -0.05119112
K-point    84  0.06250000 -0.31250000 -0.18750000  0.00781250
Spin component 1
   -0.35776247
   -0.30940368
   -0.22786289
   -0.21352414
   -0.15744219
   -0.12069747
   -0.11915680
   -0.10935642
   -0.10710560
   -0.05207989
   -0.03422345
   -0.02145871
K-point   100  0.06250000 -0.06250000  0.06250000  0.00781250
Spin component 1
   -0.47148914
   -0.39733902
   -0.35568497
   -0.30841494
   -0.26999581
   -0.19957557
   -0.19770680
   -0.18525786
   -0.15681792
   -0.13199777
   -0.09675103
   -0.03785977
K-point   116  0.31250000  0.43750000  0.06250000  0.00781250
Spin component 1
   -0.23302119
   -0.19120507
   -0.18350941
   -0.14269037
   -0.13857819
   -0.13662510
   -0.08474612
   -0.06821971
   -0.05852667
   -0.05248626
   -0.03828261
   -0.02190070
K-point     5 -0.43750000 -0.18750000 -0.43750000  0.00781250
Spin component 1
   -0.42116063
   -0.40023085
   -0.27596807
   -0.25825228
   -0.22972205
   -0.20199993
   -0.18587885
   -0.16396891
   -0.12603494
   -0.12144981
   -0.03532526
   -0.01971150
K-point    21 -0.43750000  0.43750000  0.43750000  0.00781250
Spin component 1
   -0.24589046
   -0.23563584
   -0.13288697
   -0.12931836
   -0.11442182
   -0.10800852
   -0.10432060
   -0.09830334
   -0.04232279
   -0.03684860
   -0.03152859
   -0.02711347
K-point    37 -0.31250000 -0.06250000 -0.43750000  0.00781250
Spin component 1
   -0.45143210
   -0.42107025
   -0.35001727
   -0.30902287
   -0.29524305
   -0.22042316
   -0.21258244
   -0.16474754
   -0.13968040
   -0.11701207
   -0.05778439
   -0.04103316
K-point    53 -0.18750000 -0.31250000 -0.43750000  0.00781250
Spin component 1
   -0.32912911
   -0.29257877
   -0.27733890
   -0.24770187
   -0.19206956
   -0.14429688
   -0.10711884
   -0.08314678
   -0.05674716
   -0.03342050
   -0.02653755
   -0.01265706
K-point    69 -0.18750000 -0.06250000 -0.31250000  0.00781250
Spin component 1
   -0.42113390
   -0.39949049
   -0.39832075
   -0.35001323
   -0.30739427
   -0.22446801
   -0.21984413
   -0.13129231
   -0.08544584
   -0.07718566
   -0.07129746
   -0.04913822
K-point    85  0.06250000 -0.31250000 -0.06250000  0.00781250
Spin component 1
   -0.36572629
   -0.28651205
   -0.26431597
   -0.16651352
   -0.15967612
   -0.14971796
   -0.13759432
   -0.07784606
   -0.07324791
   -0.05696088
   -0.04990465
   -0.04621185
K-point   101  0.06250000 -0.06250000  0.18750000  0.00781250
Spin component 1
   -0.45482911
   -0.41372617
   -0.35583496
   -0.30828359
   -0.28557287
   -0.24987248
   -0.19771301
   -0.15620426
   -0.14179156
   -0.11908091
   -0.06802670
   -0.01605558
K-point   117  0.31250000  0.43750000  0.43750000  0.00781250
Spin component 1
   -0.23981673
   -0.21676186
   -0.15704878
   -0.14753524
   -0.12433011
   -0.11807001
   -0.09185708
   -0.07354097
   -0.05758291
   -0.05438850
   -0.02912684
   -0.02226861
K-point     6 -0.43750000 -0.18750000 -0.31250000  0.00781250
Spin component 1
   -0.42115780
   -0.36782252
   -0.30703437
   -0.28977280
   -0.28828184
   -0.16438552
   -0.14892884
   -0.13448927
   -0.12579020
   -0.09647990
   -0.04391538
   -0.03520691
K-point    22 -0.31250000 -0.43750000  0.06250000  0.00781250
Spin component 1
   -0.25014238
   -0.17537891
   -0.17112839
   -0.16118119
   -0.13556815
   -0.13019912
   -0.08564233
   -0.06432011
   -0.05694584
   -0.05440536
   -0.02612071
   -0.01813235
K-point    38 -0.31250000 -0.06250000 -0.31250000  0.00781250
Spin component 1
   -0.44313038
   -0.38034645
   -0.37421892
   -0.36418061
   -0.31898087
   -0.21272212
   -0.18577787
   -0.15472698
   -0.11444419
   -0.08691355
   -0.07331523
   -0.04578045
K-point    54 -0.18750000 -0.31250000 -0.31250000  0.00781250
Spin component 1
   -0.31352270
   -0.29279515
   -0.29233413
   -0.24776786
   -0.20594763
   -0.13304577
   -0.13195436
   -0.06546854
   -0.03979724
   -0.03593183
   -0.02262425
   -0.01357218
K-point    70 -0.18750000 -0.06250000 -0.18750000  0.00781250
Spin component 1
   -0.43526914
   -0.40358987
   -0.39243079
   -0.31153817
   -0.29158403
   -0.28152113
   -0.19853528
   -0.11336686
   -0.10866932
   -0.10691960
   -0.07081518
   -0.02459548
K-point    86  0.06250000 -0.31250000  0.06250000  0.00781250
Spin component 1
   -0.36173895
   -0.29096006
   -0.25259578
   -0.20945870
   -0.17218327
   -0.11684313
   -0.11114167
   -0.10246712
   -0.08269810
   -0.05393126
   -0.04614884
   -0.02864145
K-point   102  0.06250000 -0.06250000  0.31250000  0.00781250
Spin component 1
   -0.42587821
   -0.41784491
   -0.39223575
   -0.31362651
   -0.28942236
   -0.25136779
   -0.23090537
   -0.11823726
   -0.11103031
   -0.09645975
   -0.06598521
   -0.02724614
K-point   118  0.43750000 -0.43750000 -0.31250000  0.00781250
Spin component 1
   -0.25281817
   -0.21581076
   -0.13946788
   -0.13414637
   -0.13252011
   -0.12393428
   -0.08974975
   -0.08172040
   -0.05563114
   -0.04177826
   -0.02729591
   -0.01736137
K-point     7 -0.43750000 -0.18750000  0.06250000  0.00781250
Spin component 1
   -0.40839410
   -0.34819743
   -0.33083324
   -0.31256227
   -0.30087937
   -0.20854750
   -0.12919967
   -0.10359093
   -0.08564006
   -0.07500117
   -0.07076776
   -0.01623723
K-point    23 -0.31250000 -0.43750000  0.18750000  0.00781250
Spin component 1
   -0.25717430
   -0.20071944
   -0.15787671
   -0.13722656
   -0.13432810
   -0.11638362
   -0.09263283
   -0.07131121
   -0.05884575
   -0.05009191
   -0.01844339
   -0.01539071
K-point    39 -0.31250000 -0.06250000 -0.18750000  0.00781250
Spin component 1
   -0.42248232
   -0.40874445
   -0.38650190
   -0.33170746
   -0.32774787
   -0.24965766
   -0.19425640
   -0.11085222
   -0.10372305
   -0.08134307
   -0.06811947
   -0.04763392
K-point    55 -0.18750000 -0.31250000 -0.06250000  0.00781250
Spin component 1
   -0.35090547
   -0.28887541
   -0.24920922
   -0.23475274
   -0.20242872
   -0.13781468
   -0.08630690
   -0.07905198
   -0.07427011
   -0.05358202
   -0.04165727
   -0.01590374
K-point    71 -0.18750000 -0.06250000 -0.06250000  0.00781250
Spin component 1
   -0.46014510
   -0.39540297
   -0.35206652
   -0.33602870
   -0.30351996
   -0.22633059
   -0.16364745
   -0.14975038
   -0.14880387
   -0.13139994
   -0.08611763
   -0.02155997
K-point    87  0.06250000 -0.31250000  0.18750000  0.00781250
Spin component 1
   -0.34587254
   -0.30625416
   -0.25253160
   -0.20963024
   -0.18578091
   -0.15804083
   -0.11239511
   -0.08190726
   -0.07096901
   -0.04523731
   -0.03508667
   -0.01148108
K-point   103  0.06250000 -0.06250000  0.43750000  0.00781250
Spin component 1
   -0.41684022
   -0.40961645
   -0.38501509
   -0.36888206
   -0.28157652
   -0.25378530
   -0.18927306
   -0.15911502
   -0.07825028
   -0.07484155
   -0.06474654
   -0.05438092
K-point   119  0.43750000 -0.43750000  0.18750000  0.00781250
Spin component 1
   -0.23548913
   -0.18268916
   -0.17249031
   -0.16400340
   -0.14952316
   -0.12746953
   -0.07633037
   -0.07200999
   -0.05457042
   -0.05170459
   -0.03449980
   -0.02908628
K-point     8 -0.43750000 -0.18750000  0.18750000  0.00781250
Spin component 1
   -0.42481003
   -0.34826469
   -0.31482553
   -0.30100595
   -0.29680077
   -0.14697045
   -0.14193199
   -0.13148881
   -0.11746817
   -0.10461791
   -0.06946174
   -0.02649908
K-point    24 -0.31250000 -0.43750000  0.31250000  0.00781250
Spin component 1
   -0.25368486
   -0.22305891
   -0.13717521
   -0.13568910
   -0.12162882
   -0.11050572
   -0.09921863
   -0.08416882
   -0.05293531
   -0.04438315
   -0.02376763
   -0.01890505
K-point    40 -0.31250000 -0.06250000 -0.06250000  0.00781250
Spin component 1
   -0.44170345
   -0.38971513
   -0.38650198
   -0.33109704
   -0.30994220
   -0.26725953
   -0.16616757
   -0.13235162
   -0.10875808
   -0.10208171
   -0.08022996
   -0.02648006
K-point    56 -0.18750000 -0.31250000  0.06250000  0.00781250
Spin component 1
   -0.36282859
   -0.27589348
   -0.26937539
   -0.20292282
   -0.18507845
   -0.12287107
   -0.10253825
   -0.08569823
   -0.06918553
   -0.06165455
   -0.05447922
   -0.03660210
K-point    72 -0.18750000 -0.06250000  0.06250000  0.00781250
Spin component 1
   -0.47265273
   -0.38071935
   -0.37441801
   -0.30097759
   -0.28389166
   -0.20746830
   -0.18764580
   -0.16644579
   -0.14471324
   -0.13016648
   -0.11714197
   -0.04935688
K-point    88  0.06250000 -0.31250000  0.43750000  0.00781250
Spin component 1
   -0.30931781
   -0.30232974
   -0.28013366
   -0.26516440
   -0.18237850
   -0.15749666
   -0.10829631
   -0.08521418
   -0.03825833
   -0.03656559
   -0.01683725
   -0.01370699
K-point   104  0.06250000  0.31250000  0.31250000  0.00781250
Spin component 1
   -0.31845129
   -0.31008424
   -0.28626402
   -0.21462359
   -0.18913316
   -0.15974269
   -0.13858883
   -0.05446561
   -0.05173377
   -0.03875927
   -0.03136113
   -0.00751324
K-point   120  0.43750000 -0.31250000 -0.18750000  0.00781250
Spin component 1
   -0.35236459
   -0.27921552
   -0.24662988
   -0.23469394
   -0.22926296
   -0.09681252
   -0.08898484
   -0.08470974
   -0.07680095
   -0.05964877
   -0.04174044
   -0.02605820
K-point     9 -0.43750000 -0.18750000  0.43750000  0.00781250
Spin component 1
   -0.42070124
   -0.40885537
   -0.24934989
   -0.23458219
   -0.23213551
   -0.21743026
   -0.18214828
   -0.16659894
   -0.15361989
   -0.13808341
   -0.02248449
   -0.01965040
K-point    25 -0.31250000 -0.31250000 -0.43750000  0.00781250
Spin component 1
   -0.34234135
   -0.31389606
   -0.24648495
   -0.21046617
   -0.19595050
   -0.12774069
   -0.12673140
   -0.08957814
   -0.06291410
   -0.04667693
   -0.04251228
   -0.01337894
K-point    41 -0.31250000 -0.06250000  0.06250000  0.00781250
Spin component 1
   -0.46246528
   -0.37444940
   -0.36115334
   -0.34545601
   -0.31908155
   -0.20178814
   -0.15537438
   -0.15210829
   -0.14177246
   -0.12776160
   -0.11153215
   -0.03082144
K-point    57 -0.18750000 -0.31250000  0.18750000  0.00781250
Spin component 1
   -0.36283247
   -0.30588879
   -0.24028878
   -0.17101459
   -0.15885195
   -0.15054522
   -0.12533401
   -0.10150931
   -0.08511890
   -0.06178730
   -0.03775627
   -0.03510752
K-point    73 -0.18750000 -0.06250000  0.18750000  0.00781250
Spin component 1
   -0.47265262
   -0.41290370
   -0.34264745
   -0.26508996
   -0.25313708
   -0.24124714
   -0.21686545
   -0.18043136
   -0.16650551
   -0.14266311
   -0.07772632
   -0.04916004
K-point    89  0.06250000 -0.18750000 -0.43750000  0.00781250
Spin component 1
   -0.39255995
   -0.37724877
   -0.35303950
   -0.29817491
   -0.23135630
   -0.22837691
   -0.18793807
   -0.10718377
   -0.08823026
   -0.06284746
   -0.04300715
   -0.01808379
K-point   105  0.06250000  0.43750000 -0.43750000  0.00781250
Spin component 1
   -0.22023075
   -0.21129103
   -0.18787971
   -0.15933680
   -0.11185997
   -0.10515189
   -0.09383856
   -0.08675171
   -0.05939967
   -0.05627193
   -0.03155327
   -0.02829234
K-point   121  0.43750000 -0.18750000  0.18750000  0.00781250
Spin component 1
   -0.40884708
   -0.33983074
   -0.32688040
   -0.32408723
   -0.30839520
   -0.18203900
   -0.15391593
   -0.09894245
   -0.08779730
   -0.07466085
   -0.06605206
   -0.02239967
K-point    10 -0.43750000 -0.06250000  0.43750000  0.00781250
Spin component 1
   -0.45761826
   -0.44563366
   -0.28319584
   -0.26808850
   -0.26563755
   -0.25028398
   -0.21395952
   -0.19794033
   -0.18520065
   -0.16903267
   -0.03790756
   -0.03387863
K-point    26 -0.31250000 -0.31250000 -0.31250000  0.00781250
Spin component 1
   -0.33445148
   -0.27574642
   -0.26881853
   -0.26072166
   -0.21705724
   -0.12090967
   -0.10468080
   -0.08304196
   -0.05662162
   -0.03289876
   -0.02880967
   -0.01864791
K-point    42 -0.31250000 -0.06250000  0.18750000  0.00781250
Spin component 1
   -0.47080543
   -0.40196458
   -0.34988753
   -0.29539305
   -0.29086163
   -0.21318838
   -0.17612300
   -0.16524223
   -0.15711737
   -0.15319574
   -0.08615618
   -0.05690817
K-point    58 -0.18750000 -0.31250000  0.31250000  0.00781250
Spin component 1
   -0.35091955
   -0.32526385
   -0.21506372
   -0.20133581
   -0.14161599
   -0.13928675
   -0.13535710
   -0.12466649
   -0.09850707
   -0.05486078
   -0.02895435
   -0.01638319
K-point    74 -0.18750000 -0.06250000  0.31250000  0.00781250
Spin component 1
   -0.46014479
   -0.43350679
   -0.31505986
   -0.29928334
   -0.23605000
   -0.22690833
   -0.22606772
   -0.21198524
   -0.17839439
   -0.13243670
   -0.05366994
   -0.02125670
K-point    90  0.06250000 -0.18750000 -0.31250000  0.00781250
Spin component 1
   -0.40977302
   -0.39256483
   -0.32123388
   -0.24488380
   -0.23817527
   -0.23120343
   -0.19903501
   -0.13186922
   -0.10749417
   -0.08522995
   -0.04260407
   -0.00336174
K-point   106  0.06250000  0.43750000 -0.31250000  0.00781250
Spin component 1
   -0.23732374
   -0.22031975
   -0.16457630
   -0.14089626
   -0.12228532
   -0.10971206
   -0.08710216
   -0.08400650
   -0.06650268
   -0.04925144
   -0.03309999
   -0.01727551
K-point   122  0.43750000 -0.06250000  0.06250000  0.00781250
Spin component 1
   -0.42090444
   -0.41621957
   -0.37071841
   -0.35220932
   -0.30435590
   -0.27793314
   -0.16453304
   -0.13287881
   -0.09252375
   -0.08482825
   -0.06596388
   -0.04778571
K-point    11 -0.43750000  0.06250000 -0.43750000  0.00781250
Spin component 1
   -0.45810167
   -0.43687712
   -0.31064880
   -0.29243473
   -0.26304760
   -0.23423509
   -0.21761058
   -0.19607791
   -0.15590521
   -0.15126608
   -0.05100747
   -0.03594959
K-point    27 -0.31250000 -0.31250000  0.18750000  0.00781250
Spin component 1
   -0.36102741
   -0.29577010
   -0.24657867
   -0.19618051
   -0.19366747
   -0.12740725
   -0.09340904
   -0.08976197
   -0.07377524
   -0.07056907
   -0.04744130
   -0.03519429
K-point    43 -0.31250000 -0.06250000  0.31250000  0.00781250
Spin component 1
   -0.46663224
   -0.43071185
   -0.31407791
   -0.26790355
   -0.26062573
   -0.22861357
   -0.21575033
   -0.20146070
   -0.18147566
   -0.15428956
   -0.05309157
   -0.03923749
K-point    59 -0.18750000 -0.31250000  0.43750000  0.00781250
Spin component 1
   -0.33307330
   -0.32731765
   -0.25116593
   -0.19489220
   -0.16852956
   -0.15527963
   -0.14738341
   -0.08859229
   -0.05945513
   -0.04263822
   -0.04037948
   -0.00930084
K-point    75 -0.18750000 -0.06250000  0.43750000  0.00781250
Spin component 1
   -0.44179209
   -0.43526480
   -0.35480108
   -0.29163838
   -0.26435054
   -0.24651076
   -0.24318382
   -0.16390541
   -0.13341876
   -0.11244527
   -0.05910353
   -0.02462109
K-point    91  0.06250000 -0.18750000 -0.18750000  0.00781250
Spin component 1
   -0.43030467
   -0.38037994
   -0.29383386
   -0.27853192
   -0.22023188
   -0.17472489
   -0.17399533
   -0.16082300
   -0.15893718
   -0.10054141
   -0.05054584
   -0.01389490
K-point   107  0.06250000  0.43750000  0.31250000  0.00781250
Spin component 1
   -0.22078568
   -0.21021553
   -0.19126290
   -0.15104664
   -0.11636209
   -0.10976319
   -0.09664740
   -0.08143788
   -0.05981030
   -0.05374397
   -0.03673171
   -0.02374948
K-point   123  0.43750000  0.18750000  0.06250000  0.00781250
Spin component 1
   -0.38443386
   -0.37986085
   -0.33476775
   -0.31652854
   -0.27007139
   -0.24428644
   -0.13426278
   -0.10450047
   -0.06943309
   -0.06302552
   -0.04413029
   -0.02929273
K-point    12 -0.43750000  0.06250000 -0.31250000  0.00781250
Spin component 1
   -0.45810256
   -0.40399489
   -0.34243376
   -0.32417290
   -0.32368296
   -0.19646376
   -0.17852575
   -0.16351532
   -0.15553531
   -0.12445421
   -0.06486068
   -0.05149075
K-point    28 -0.31250000 -0.31250000  0.31250000  0.00781250
Spin component 1
   -0.35705745
   -0.32276938
   -0.21424452
   -0.17323365
   -0.16578223
   -0.13997039
   -0.12922517
   -0.11144318
   -0.09928924
   -0.07109893
   -0.02916466
   -0.02536091
K-point    44 -0.31250000 -0.06250000  0.43750000  0.00781250
Spin component 1
   -0.44998923
   -0.44727712
   -0.31423028
   -0.26770927
   -0.26039856
   -0.24562259
   -0.21810971
   -0.21430198
   -0.16649963
   -0.14038162
   -0.04778837
   -0.02360909
K-point    60 -0.18750000 -0.18750000 -0.43750000  0.00781250
Spin component 1
   -0.40091520
   -0.36227002
   -0.34708453
   -0.31474207
   -0.25712666
   -0.20627232
   -0.15681554
   -0.12948770
   -0.08936641
   -0.06058611
   -0.03733853
   -0.03040634
K-point    76 -0.18750000  0.31250000 -0.18750000  0.00781250
Spin component 1
   -0.32729754
   -0.29648629
   -0.28658838
   -0.20964720
   -0.19490387
   -0.18579845
   -0.11161107
   -0.05292605
   -0.04821789
   -0.03942919
   -0.03762074
   -0.00899992
K-point    92  0.06250000 -0.18750000 -0.06250000  0.00781250
Spin component 1
   -0.43855648
   -0.35626773
   -0.33294442
   -0.22655003
   -0.21875405
   -0.21033542
   -0.19766847
   -0.12660105
   -0.11821092
   -0.10596094
   -0.08305077
   -0.04126735
K-point   108  0.06250000  0.43750000  0.43750000  0.00781250
Spin component 1
   -0.21027837
   -0.20364144
   -0.19045116
   -0.17971211
   -0.10999565
   -0.10728854
   -0.09579266
   -0.08477457
   -0.05443322
   -0.05371983
   -0.03665218
   -0.03292864
K-point   124  0.43750000  0.31250000 -0.06250000  0.00781250
Spin component 1
   -0.33656417
   -0.27908077
   -0.26151226
   -0.24395808
   -0.23472995
   -0.15072090
   -0.07806821
   -0.06113534
   -0.05354749
   -0.04732211
   -0.03754014
   -0.01573808
K-point    13 -0.43750000  0.06250000 -0.18750000  0.00781250
Spin component 1
   -0.44563736
   -0.37555852
   -0.36271325
   -0.35948057
   -0.34390941
   -0.21372412
   -0.18540903
   -0.12501556
   -0.11298687
   -0.09992256
   -0.09108927
   -0.03816530
K-point    29 -0.31250000 -0.31250000  0.43750000  0.00781250
Spin component 1
   -0.34123883
   -0.33841840
   -0.21404544
   -0.17357472
   -0.16622334
   -0.15405215
   -0.12960923
   -0.12262617
   -0.08817027
   -0.06152368
   -0.03008503
   -0.01434738
K-point    45 -0.31250000  0.31250000  0.06250000  0.00781250
Spin component 1
   -0.35307287
   -0.26919232
   -0.25779020
   -0.24324099
   -0.21701156
   -0.11705410
   -0.08348069
   -0.07260709
   -0.06730299
   -0.06006402
   -0.05332295
   -0.02136331
K-point    61 -0.18750000 -0.18750000 -0.31250000  0.00781250
Spin component 1
   -0.38462388
   -0.36319472
   -0.36222563
   -0.31476541
   -0.27248176
   -0.19173789
   -0.18803947
   -0.10430517
   -0.06147009
   -0.05677570
   -0.04897975
   -0.02964889
K-point    77 -0.06250000 -0.43750000 -0.18750000  0.00781250
Spin component 1
   -0.24410851
   -0.20708837
   -0.16525507
   -0.13947026
   -0.13722593
   -0.10821723
   -0.09556248
   -0.07335802
   -0.06389920
   -0.04530921
   -0.03736165
   -0.01413472
K-point    93  0.06250000 -0.18750000  0.06250000  0.00781250
Spin component 1
   -0.43442767
   -0.36115058
   -0.32027726
   -0.27396423
   -0.23595750
   -0.16878718
   -0.16610102
   -0.15427430
   -0.12777475
   -0.10306327
   -0.07325748
   -0.02346465
K-point   109  0.18750000 -0.43750000  0.18750000  0.00781250
Spin component 1
   -0.22807664
   -0.19794459
   -0.19231849
   -0.14371559
   -0.12847635
   -0.12298139
   -0.09208736
   -0.07307054
   -0.05970405
   -0.04938454
   -0.04166565
   -0.02125105
K-point   125  0.43750000  0.31250000  0.06250000  0.00781250
Spin component 1
   -0.31351739
   -0.30925803
   -0.26517738
   -0.24771264
   -0.20630104
   -0.18271736
   -0.08324356
   -0.05991132
   -0.04258445
   -0.04069378
   -0.02352092
   -0.01793252
K-point    14 -0.43750000  0.06250000  0.06250000  0.00781250
Spin component 1
   -0.44516265
   -0.38408024
   -0.36669875
   -0.34818025
   -0.33584844
   -0.24117483
   -0.15943109
   -0.13154534
   -0.11054590
   -0.09805701
   -0.09641471
   -0.03141354
K-point    30 -0.31250000 -0.18750000 -0.43750000  0.00781250
Spin component 1
   -0.41455038
   -0.38465284
   -0.31453559
   -0.27463119
   -0.26078336
   -0.18750247
   -0.18130482
   -0.13559944
   -0.11067097
   -0.08943717
   -0.04154789
   -0.02296573
K-point    46 -0.31250000  0.43750000 -0.18750000  0.00781250
Spin component 1
   -0.21623664
   -0.20715651
   -0.18335012
   -0.15602654
   -0.13817670
   -0.12466193
   -0.08439386
   -0.07113462
   -0.05618857
   -0.05127457
   -0.04116073
   -0.02884359
K-point    62 -0.18750000 -0.18750000 -0.18750000  0.00781250
Spin component 1
   -0.39865241
   -0.36723221
   -0.35635445
   -0.27652099
   -0.25759520
   -0.24778884
   -0.16695536
   -0.08661597
   -0.08396576
   -0.08008281
   -0.05151495
   -0.00948678
K-point    78 -0.06250000  0.18750000 -0.43750000  0.00781250
Spin component 1
   -0.38035975
   -0.37320187
   -0.34914712
   -0.33328936
   -0.24721810
   -0.22013025
   -0.15880533
   -0.13024903
   -0.05668109
   -0.05394889
   -0.04260995
   -0.03385454
K-point    94  0.06250000 -0.18750000  0.18750000  0.00781250
Spin component 1
   -0.41796717
   -0.37726750
   -0.32037407
   -0.27390438
   -0.25108743
   -0.21692001
   -0.16641002
   -0.12720720
   -0.11366806
   -0.09106369
   -0.04882751
   -0.00355336
K-point   110  0.18750000 -0.43750000  0.43750000  0.00781250
Spin component 1
   -0.22782294
   -0.19984437
   -0.18218282
   -0.16784359
   -0.11719975
   -0.11316979
   -0.09319627
   -0.07385228
   -0.05840255
   -0.05582144
   -0.03367839
   -0.02846835
K-point   126  0.43750000  0.43750000 -0.18750000  0.00781250
Spin component 1
   -0.24928905
   -0.18830665
   -0.15713696
   -0.15613026
   -0.14101814
   -0.13279662
   -0.08007574
   -0.07143106
   -0.05764852
   -0.04828045
   -0.02633808
   -0.02127904
K-point    15 -0.43750000  0.06250000  0.18750000  0.00781250
Spin component 1
   -0.46178277
   -0.38412621
   -0.35033106
   -0.33603581
   -0.33208391
   -0.17746989
   -0.17301648
   -0.16034599
   -0.14493188
   -0.13309341
   -0.09393674
   -0.04159877
K-point    31 -0.31250000 -0.18750000 -0.31250000  0.00781250
Spin component 1
   -0.40635045
   -0.34454231
   -0.33829378
   -0.32865367
   -0.28392799
   -0.18018652
   -0.15520419
   -0.12641039
   -0.08917154
   -0.06216537
   -0.05073977
   -0.02916336
K-point    47 -0.31250000  0.43750000  0.43750000  0.00781250
Spin component 1
   -0.23988697
   -0.23644897
   -0.13634210
   -0.13384628
   -0.12485348
   -0.10920445
   -0.10059987
   -0.08402346
   -0.05410153
   -0.04417554
   -0.02853663
   -0.02226714
K-point    63 -0.18750000 -0.18750000 -0.06250000  0.00781250
Spin component 1
   -0.42321288
   -0.35918772
   -0.31670200
   -0.30103588
   -0.26869675
   -0.19408450
   -0.13399359
   -0.12166534
   -0.11981576
   -0.10247845
   -0.06416543
   -0.00864004
K-point    79  0.06250000 -0.43750000 -0.18750000  0.00781250
Spin component 1
   -0.25452002
   -0.21057196
   -0.14760915
   -0.13904903
   -0.13725528
   -0.10965673
   -0.08276389
   -0.07446531
   -0.07200911
   -0.04498832
   -0.02764191
   -0.01086610
K-point    95  0.06250000 -0.18750000  0.31250000  0.00781250
Spin component 1
   -0.38939346
   -0.38131395
   -0.35613575
   -0.27911423
   -0.25480934
   -0.21857351
   -0.19811312
   -0.09152326
   -0.08581383
   -0.07030527
   -0.04773147
   -0.01122881
K-point   111  0.18750000  0.43750000  0.06250000  0.00781250
Spin component 1
   -0.24840369
   -0.19180686
   -0.16403734
   -0.15472289
   -0.13739066
   -0.11823286
   -0.09197415
   -0.06571416
   -0.05987894
   -0.05119946
   -0.03201762
   -0.01428516
K-point   127  0.43750000  0.43750000 -0.06250000  0.00781250
Spin component 1
   -0.23551338
   -0.18789879
   -0.16747696
   -0.15721045
   -0.15187012
   -0.13220344
   -0.07777730
   -0.06920102
   -0.05644838
   -0.05418811
   -0.03360081
   -0.02608866
K-point    16 -0.43750000  0.06250000  0.31250000  0.00781250
Spin component 1
   -0.46595029
   -0.42084852
   -0.32236371
   -0.30433712
   -0.27816774
   -0.21658445
   -0.19961669
   -0.17612857
   -0.16375105
   -0.14979747
   -0.05762729
   -0.05666317
K-point    32 -0.31250000 -0.18750000 -0.06250000  0.00781250
Spin component 1
   -0.40499333
   -0.35374464
   -0.35032546
   -0.29573846
   -0.27554544
   -0.23385725
   -0.13609009
   -0.10378142
   -0.08378329
   -0.07661817
   -0.05910417
   -0.01158023
K-point    48 -0.18750000 -0.43750000 -0.31250000  0.00781250
Spin component 1
   -0.21448562
   -0.19975062
   -0.19459809
   -0.16800132
   -0.12122381
   -0.11672517
   -0.09183377
   -0.07431578
   -0.05465720
   -0.05241530
   -0.04103907
   -0.03021829
K-point    64 -0.18750000 -0.18750000  0.06250000  0.00781250
Spin component 1
   -0.43557332
   -0.34489910
   -0.33855415
   -0.26672008
   -0.24958850
   -0.17622912
   -0.15647518
   -0.13599771
   -0.11507021
   -0.10348724
   -0.09084495
   -0.03390400
K-point    80  0.06250000 -0.43750000 -0.06250000  0.00781250
Spin component 1
   -0.26156169
   -0.19188622
   -0.17356020
   -0.14064393
   -0.11578321
   -0.11377060
   -0.08513266
   -0.07423915
   -0.06444720
   -0.05735986
   -0.01422419
   -0.00900312
K-point    96  0.06250000 -0.06250000 -0.43750000  0.00781250
Spin component 1
   -0.42921153
   -0.41355713
   -0.38912544
   -0.33310255
   -0.26542124
   -0.26211316
   -0.21958394
   -0.13511094
   -0.11359783
   -0.08803545
   -0.06055794
   -0.03587614
K-point   112  0.31250000 -0.43750000  0.31250000  0.00781250
Spin component 1
   -0.23292379
   -0.18675185
   -0.17602275
   -0.17400133
   -0.13122384
   -0.12249195
   -0.08468693
   -0.06916403
   -0.05493209
   -0.05294274
   -0.03763703
   -0.02790332
K-point   128  0.43750000  0.43750000  0.43750000  0.00781250
Spin component 1
   -0.24588605
   -0.22894971
   -0.13511458
   -0.12996799
   -0.12944439
   -0.11829579
   -0.09454924
   -0.08701256
   -0.05099522
   -0.04166056
   -0.03003366
   -0.02194045
