 0.0000,0.0000,0.0000
 0.0000,0.0000,0.0000
 0.0000,0.0000,0.0000
 0.0000,0.0000,0.0000
 0.0000,0.0000,0.0000
 0.0000,0.0000,0.0000
 0.0000,0.0000,0.0000
 0.0000,0.0000,0.0000
 0.0000,0.0000,0.0000
 0.0000,0.0000,0.0000
 0.0000,0.0000,0.0000
 0.0000,0.0000,0.0000
 0.0000,0.0000,0.0000
 0.0000,0.0000,0.0000
 0.0000,0.0000,0.0000
 0.0000,0.0000,0.0000
 0.0000,0.0000,0.0000
 0.0000,0.0000,0.0000
 0.0000,0.0000,0.0000
 0.0000,0.0000,0.0000
 0.0000,0.0000,0.0000
 0.0000,0.0000,0.0000
 0.0000,0.0000,0.0000
 0.0000,0.0000,0.0000
 0.0000,0.0000,0.0000
 0.0000,0.0000,0.0000
 0.0000,0.0000,0.0000
 0.0000,0.0000,0.0000
 0.0000,0.0000,0.0000
 0.0000,0.0000,0.0000
 0.0000,0.0000,0.0000
 0.0000,0.0000,0.0000
 0.0000,0.0000,0.0000
 0.0000,0.0000,0.0000
 0.0000,0.0000,0.0000
 0.0000,0.0000,0.0000
 0.0000,0.0000,0.0000
 0.0000,0.0000,0.0000
 0.0000,0.0000,0.0000
 0.0000,0.0000,0.0000
 0.0000,0.0000,0.0000
 0.0000,0.0000,0.0000
 0.0000,0.0000,0.0000
 0.0000,0.0000,-1.2098
 0.0000,-1.2098,-0.0000
 0.0000,0.0000,1.2098
 0.0000,0.0000,0.0000
 1.2098,0.0000,-0.0000
 0.0000,0.0000,0.0000
 0.0000,0.0000,0.0000
 0.0000,0.0000,0.0000
 0.0000,0.0000,0.0000
 0.0000,0.0000,0.0000
 0.0000,0.0000,0.0000
 0.0000,0.0000,0.0000
 0.0000,0.0000,0.0000
 0.0000,0.0000,0.0000
 0.0000,0.0000,0.0000
 0.0000,0.0000,0.0000
 0.0000,0.0000,0.0000
 0.0000,0.0000,0.0000
 0.0000,0.0000,0.0000
 0.0000,0.0000,0.0000
 0.0000,0.0000,0.0000
 0.0000,0.0000,0.0000
 0.0000,0.0000,0.0000
 0.0000,0.0000,0.0000
 0.0000,0.0000,0.0000
 0.0000,0.0000,0.0000
 0.0000,0.0000,0.0000
 0.0000,0.0000,0.0000
 0.0000,0.0000,0.0000
 0.0000,0.0000,0.0000
 0.0000,0.0000,0.0000
 0.0000,0.0000,0.0000
 0.0000,0.0000,0.0000
 0.0000,0.0000,0.0000
 0.0000,0.0000,0.0000
 0.0000,0.0000,0.0002
 0.0000,0.0000,0.0000
 0.0002,0.0000,-0.0000
 0.0000,0.0000,0.0000
 0.0000,0.0000,0.0000
 0.0000,0.0000,0.0000
 0.0000,0.0000,0.0000
 0.0000,0.0000,-0.0000
 0.0000,-0.0000,-0.0000
 0.0000,0.0000,0.0000
 0.0000,0.0000,0.0000
 0.0000,0.0000,0.0000
 0.0000,0.0000,0.0000
 0.0000,0.0000,0.0000
 0.0000,0.0000,0.0000
 0.0000,0.0000,0.0000
 0.0000,0.0000,0.0000
 0.0000,0.0000,0.0000
 0.0000,0.0000,0.0000
 0.0000,0.0000,0.0000
 0.0000,0.0000,-0.0000
 0.0000,0.0000,0.0000
 0.0000,0.0000,0.0000
 0.0000,0.0000,0.0000
 0.0000,0.0000,0.0000
 0.0000,0.0000,0.0000
 0.0000,0.0000,0.0000
 0.0000,0.0000,0.0000
 0.0000,0.0000,0.0000
 0.0000,0.0000,0.0000
 0.0000,0.0000,0.0000
 0.0000,0.0000,0.0000
 0.0000,0.0000,0.0000
 0.0000,0.0000,0.0000
 0.0000,0.0000,0.0000
 0.0000,0.0000,0.0000
 0.0000,0.0000,0.0000
 0.0000,0.0000,0.0000
 0.0000,0.0000,0.0000
 0.0000,0.0000,0.0000
 0.0000,0.0000,0.0000
 0.0000,0.0000,0.0000
 0.0000,0.0000,0.0000
 0.0000,0.0000,0.0000
 0.0000,0.0000,0.0000
 0.0000,0.0000,0.0000
 0.0000,0.0000,0.0000
 0.0000,0.0000,0.0000
 0.0000,0.0000,0.0000
 0.0000,0.0000,0.0000
 0.0000,0.0000,0.0000
 0.0000,0.0000,0.0000
 0.0000,0.0000,0.0000
 0.0000,0.0000,0.0000
 0.0000,0.0000,0.0000
 0.0000,0.0000,0.0000
 0.0000,0.0000,0.0000
 0.0000,0.0000,0.0000
 0.0000,0.0000,0.0000
 0.0000,0.0000,0.0000
 0.0000,0.0000,0.0000
 0.0000,0.0000,0.0000
 0.0000,0.0000,0.0000
 0.0000,0.0000,0.0000
 0.0000,0.0000,0.0000
 0.0000,0.0000,0.0000
 0.0000,0.0000,0.0000
 0.0000,0.0000,0.0000
 0.0000,0.0000,0.0000
 0.0000,0.0000,0.0000
 0.0000,0.0000,0.0000
 0.0000,0.0000,0.0000
 0.0000,0.0000,0.0000
 0.0000,0.0000,0.0000
 0.0000,0.0000,0.0000
 0.0000,0.0000,0.0000
 0.0000,-0.0000,0.0000
 0.0000,0.0000,0.0001
 0.0000,0.0000,0.0000
 0.0000,0.0000,0.0000
 0.0000,0.0000,0.0000
 0.0000,0.0000,0.0000
 0.0000,0.0000,0.0000
 0.0000,0.0000,0.0000
 0.0000,0.0000,0.0000
 0.0000,0.0000,0.0000
 0.0000,0.0000,0.0000
 0.0000,0.0000,0.0000
 0.0000,0.0000,0.0000
 0.0000,0.0000,0.0000
 0.0000,0.0000,0.0000
 0.0000,0.0000,0.0000
 0.0000,0.0000,0.0000
 1.9472,0.0000,0.0000
 0.0000,1.9473,0.0000
 0.0000,0.0000,5.9111
 0.0000,0.0000,0.0000
 0.0000,0.0000,0.0000
 0.0000,0.0000,0.0000
 0.0000,0.0000,0.0000
 0.0000,0.0000,0.0000
 0.0000,0.0000,0.0000
 0.0000,0.0000,0.0000
 0.0000,0.0000,0.0000
 0.0000,0.0000,0.0000
 0.0001,0.0000,0.0000
 0.0000,0.0000,0.0000
 0.0000,0.0000,0.0002
 0.0000,0.0000,0.0000
 0.0000,0.0000,0.0000
 0.0000,0.0000,0.0000
 0.0000,0.0000,0.0000
 0.0000,0.0000,0.0000
 0.0000,0.0000,0.0000
 0.0000,0.0000,0.0000
 0.0000,0.0000,0.0000
 0.0000,0.0000,0.0000
 0.0000,0.0000,0.0000
 0.0000,0.0000,0.0000
 0.0000,0.0000,0.0000
 0.0000,0.0000,0.0000
 0.0000,0.0000,0.0000
 0.0000,0.0000,0.0000
 0.0000,0.0000,0.0000
 0.0000,0.0000,0.0000
 0.0000,0.0000,0.0000
 0.0000,0.0000,0.0000
 0.0000,0.0000,-0.0000
 0.0000,-0.0000,0.0000
