 BEGIN header
 Number of ions         8
 Number of branches     24
 Number of wavevectors  1
 Frequencies in         cm-1
 IR intensities in      (D/A)**2/amu
 Raman activities in    A**4 amu**(-1)
 Unit cell vectors (A)
    3.762686    0.000000    0.000000
    0.000000    2.185114    0.000000
    0.000000    0.000000    3.506693
 Fractional Co-ordinates
     1     0.359974    0.148943    0.381613   H         1.007825
     2     0.472752    0.354738    0.497287   H         1.007825
     3     0.972752    0.645262    0.497287   H         1.007825
     4     0.859974    0.851057    0.381613   H         1.007825
     5     0.027248    0.354738    0.997287   H         1.007825
     6     0.140026    0.148943    0.881613   H         1.007825
     7     0.527248    0.645262    0.997287   H         1.007825
     8     0.640026    0.851057    0.881613   H         1.007825
 END header
     q-pt=    1    0.000000  0.000000  0.000000      1.0000000000
       1      -0.172531              0.0000000               0.0000000          
       2      -0.140871              0.0000000               0.0000000          
       3      -0.099611              0.0000000               0.0000000          
       4     244.369242              0.0188253              39.7454260          
       5     312.759118              0.0050847             173.0222101          
       6     345.369765              0.0000000              45.4220299          
       7     348.158616              0.0026509             195.2332182          
       8     422.456231              0.0890687              29.8754165          
       9     477.148679              0.0000000               0.3269928          
      10     489.103107              0.2911876               6.3047121          
      11     558.410089              0.2906414               1.3847936          
      12     568.019431              0.0201057              13.2932172          
      13     576.926954              0.0000000               3.7348419          
      14     602.650065              0.0406247               8.7046873          
      15     620.399041              0.0000000               0.3926684          
      16     745.508966              0.3338026               0.7817605          
      17     802.966684              0.3086833               0.1635613          
      18     897.725447              0.0000000               3.3423655          
      19     976.489243              0.2288511               0.0085579          
      20    1032.327188              0.1896697               0.1250165          
      21    4293.319540              0.0400160            5391.0478967          
      22    4400.407016              0.0021362              72.7033578          
      23    4404.332381              0.0000000             109.5801700          
      24    4437.059331              0.0217741              82.6989160          
                        Phonon Eigenvectors
Mode Ion                X                                   Y                                   Z
   1   1 -0.000035719790  0.000000000000     -0.000077333658  0.000000000000     -0.353545894858  0.000000000000
   1   2 -0.000036771379  0.000000000000     -0.000062475096  0.000000000000     -0.353560868461  0.000000000000
   1   3 -0.000036771383  0.000000000000      0.000062487303  0.000000000000     -0.353560868458  0.000000000000
   1   4 -0.000035719786  0.000000000000      0.000077345865  0.000000000000     -0.353545894864  0.000000000000
   1   5  0.000036828108  0.000000000000     -0.000062475104  0.000000000000     -0.353560868467  0.000000000000
   1   6  0.000035776528  0.000000000000     -0.000077333658  0.000000000000     -0.353545894863  0.000000000000
   1   7  0.000036828112  0.000000000000      0.000062487311  0.000000000000     -0.353560868464  0.000000000000
   1   8  0.000035776525  0.000000000000      0.000077345865  0.000000000000     -0.353545894868  0.000000000000
   2   1  0.353584044854  0.000000000000      0.000000008045  0.000000000000      0.000026413985  0.000000000000
   2   2  0.353522727498  0.000000000000      0.000048866605  0.000000000000      0.000035901470  0.000000000000
   2   3  0.353522727499  0.000000000000     -0.000048868993  0.000000000000      0.000035901469  0.000000000000
   2   4  0.353584044854  0.000000000000     -0.000000010432  0.000000000000      0.000026413986  0.000000000000
   2   5  0.353522727493  0.000000000000     -0.000048868983  0.000000000000     -0.000035844735  0.000000000000
   2   6  0.353584044848  0.000000000000     -0.000000010420  0.000000000000     -0.000026357254  0.000000000000
   2   7  0.353522727492  0.000000000000      0.000048866595  0.000000000000     -0.000035844735  0.000000000000
   2   8  0.353584044849  0.000000000000      0.000000008032  0.000000000000     -0.000026357253  0.000000000000
   3   1 -0.000102776058 -0.000000000000      0.353546897008 -0.000000000000      0.000163186939 -0.000000000000
   3   2  0.000123943014 -0.000000000000      0.353559798062 -0.000000000000     -0.000090874889 -0.000000000000
   3   3 -0.000123940625 -0.000000000000      0.353559798059 -0.000000000000      0.000090887097 -0.000000000000
   3   4  0.000102778447 -0.000000000000      0.353546897006 -0.000000000000     -0.000163174732 -0.000000000000
   3   5 -0.000123940626 -0.000000000000      0.353559798061 -0.000000000000     -0.000090874890 -0.000000000000
   3   6  0.000102778446 -0.000000000000      0.353546897008 -0.000000000000      0.000163186939 -0.000000000000
   3   7  0.000123943013 -0.000000000000      0.353559798060 -0.000000000000      0.000090887097 -0.000000000000
   3   8 -0.000102776059 -0.000000000000      0.353546897006 -0.000000000000     -0.000163174732 -0.000000000000
   4   1  0.271463571064  0.000000000000      0.000327448622  0.000000000000     -0.241082390838  0.000000000000
   4   2 -0.213316844406  0.000000000000      0.000006822034  0.000000000000      0.269597156952  0.000000000000
   4   3  0.213316844406  0.000000000000      0.000006822034  0.000000000000     -0.269597156952  0.000000000000
   4   4 -0.271463571064  0.000000000000      0.000327448622  0.000000000000      0.241082390838  0.000000000000
   4   5  0.213316844406  0.000000000000      0.000006822034  0.000000000000      0.269597156952  0.000000000000
   4   6 -0.271463571064  0.000000000000      0.000327448622  0.000000000000     -0.241082390838  0.000000000000
   4   7 -0.213316844406  0.000000000000      0.000006822034  0.000000000000     -0.269597156952  0.000000000000
   4   8  0.271463571064  0.000000000000      0.000327448622  0.000000000000      0.241082390838  0.000000000000
   5   1 -0.292991042988  0.000000000000      0.119483541036  0.000000000000      0.159448155787  0.000000000000
   5   2  0.283603826433  0.000000000000     -0.136392491442  0.000000000000     -0.159443330613  0.000000000000
   5   3  0.283603826433  0.000000000000      0.136392491442  0.000000000000     -0.159443330613  0.000000000000
   5   4 -0.292991042988  0.000000000000     -0.119483541036  0.000000000000      0.159448155787  0.000000000000
   5   5 -0.283603826433  0.000000000000     -0.136392491442  0.000000000000     -0.159443330613  0.000000000000
   5   6  0.292991042988  0.000000000000      0.119483541036  0.000000000000      0.159448155787  0.000000000000
   5   7 -0.283603826433  0.000000000000      0.136392491442  0.000000000000     -0.159443330613  0.000000000000
   5   8  0.292991042988  0.000000000000     -0.119483541036  0.000000000000      0.159448155787  0.000000000000
   6   1 -0.098119824485  0.000000000000     -0.153772160159  0.000000000000      0.278042449797  0.000000000000
   6   2  0.193590082869  0.000000000000      0.092159328391  0.000000000000     -0.305693567023  0.000000000000
   6   3 -0.193590082869  0.000000000000      0.092159328391  0.000000000000      0.305693567022  0.000000000000
   6   4  0.098119824485  0.000000000000     -0.153772160159  0.000000000000     -0.278042449797  0.000000000000
   6   5  0.193590082869  0.000000000000     -0.092159328391  0.000000000000      0.305693567022  0.000000000000
   6   6 -0.098119824485  0.000000000000      0.153772160159  0.000000000000     -0.278042449797  0.000000000000
   6   7 -0.193590082869  0.000000000000     -0.092159328391  0.000000000000     -0.305693567023  0.000000000000
   6   8  0.098119824485  0.000000000000      0.153772160159  0.000000000000      0.278042449797  0.000000000000
   7   1  0.050950598592  0.000000000000     -0.256444037021  0.000000000000      0.248254476220  0.000000000000
   7   2 -0.002249612292  0.000000000000      0.241628414963  0.000000000000     -0.248235484456  0.000000000000
   7   3 -0.002249612292  0.000000000000     -0.241628414963  0.000000000000     -0.248235484457  0.000000000000
   7   4  0.050950598592  0.000000000000      0.256444037021  0.000000000000      0.248254476220  0.000000000000
   7   5  0.002249612292  0.000000000000      0.241628414963  0.000000000000     -0.248235484457  0.000000000000
   7   6 -0.050950598592  0.000000000000     -0.256444037021  0.000000000000      0.248254476220  0.000000000000
   7   7  0.002249612292  0.000000000000     -0.241628414963  0.000000000000     -0.248235484456  0.000000000000
   7   8 -0.050950598592  0.000000000000      0.256444037021  0.000000000000      0.248254476220  0.000000000000
   8   1 -0.258650119148  0.000000000000      0.208285153756  0.000000000000     -0.010357391787  0.000000000000
   8   2  0.258735007352  0.000000000000     -0.268766208968  0.000000000000     -0.020761886063  0.000000000000
   8   3  0.258735007352  0.000000000000      0.268766208968  0.000000000000     -0.020761886063  0.000000000000
   8   4 -0.258650119148  0.000000000000     -0.208285153756  0.000000000000     -0.010357391787  0.000000000000
   8   5  0.258735007352  0.000000000000      0.268766208968  0.000000000000      0.020761886063  0.000000000000
   8   6 -0.258650119148  0.000000000000     -0.208285153756  0.000000000000      0.010357391787  0.000000000000
   8   7  0.258735007352  0.000000000000     -0.268766208968  0.000000000000      0.020761886063  0.000000000000
   8   8 -0.258650119148  0.000000000000      0.208285153756  0.000000000000      0.010357391787  0.000000000000
   9   1  0.103020054412  0.000000000000     -0.222024738641  0.000000000000     -0.255035646110  0.000000000000
   9   2 -0.217431977534  0.000000000000      0.091026231628  0.000000000000     -0.263602472172  0.000000000000
   9   3  0.217431977534  0.000000000000      0.091026231628  0.000000000000      0.263602472172  0.000000000000
   9   4 -0.103020054412  0.000000000000     -0.222024738641  0.000000000000      0.255035646110  0.000000000000
   9   5 -0.217431977534  0.000000000000     -0.091026231628  0.000000000000      0.263602472172  0.000000000000
   9   6  0.103020054412  0.000000000000      0.222024738641  0.000000000000      0.255035646110  0.000000000000
   9   7  0.217431977534  0.000000000000     -0.091026231628  0.000000000000     -0.263602472172  0.000000000000
   9   8 -0.103020054412  0.000000000000      0.222024738641  0.000000000000     -0.255035646110  0.000000000000
  10   1  0.019792410871  0.000000000000      0.400983473763  0.000000000000     -0.088774385499  0.000000000000
  10   2 -0.019835584849  0.000000000000      0.269050380201  0.000000000000      0.090322008436  0.000000000000
  10   3 -0.019835584849  0.000000000000     -0.269050380201  0.000000000000      0.090322008436  0.000000000000
  10   4  0.019792410871  0.000000000000     -0.400983473763  0.000000000000     -0.088774385499  0.000000000000
  10   5 -0.019835584849  0.000000000000     -0.269050380201  0.000000000000     -0.090322008436  0.000000000000
  10   6  0.019792410871  0.000000000000     -0.400983473763  0.000000000000      0.088774385499  0.000000000000
  10   7 -0.019835584849  0.000000000000      0.269050380201  0.000000000000     -0.090322008436  0.000000000000
  10   8  0.019792410871  0.000000000000      0.400983473763  0.000000000000      0.088774385499  0.000000000000
  11   1  0.345668318132  0.000000000000      0.044135923965  0.000000000000     -0.014398141099  0.000000000000
  11   2  0.357920652800  0.000000000000      0.006784520367  0.000000000000      0.014314474167  0.000000000000
  11   3  0.357920652800  0.000000000000     -0.006784520367  0.000000000000      0.014314474167  0.000000000000
  11   4  0.345668318132  0.000000000000     -0.044135923965  0.000000000000     -0.014398141099  0.000000000000
  11   5 -0.357920652800  0.000000000000      0.006784520367  0.000000000000      0.014314474167  0.000000000000
  11   6 -0.345668318132  0.000000000000      0.044135923965  0.000000000000     -0.014398141099  0.000000000000
  11   7 -0.357920652800  0.000000000000     -0.006784520367  0.000000000000      0.014314474167  0.000000000000
  11   8 -0.345668318132  0.000000000000     -0.044135923965  0.000000000000     -0.014398141099  0.000000000000
  12   1 -0.117243747962  0.000000000000      0.264284139920  0.000000000000     -0.256178982215  0.000000000000
  12   2  0.173962678723  0.000000000000     -0.264244564224  0.000000000000      0.026304423791  0.000000000000
  12   3 -0.173962678723  0.000000000000     -0.264244564224  0.000000000000     -0.026304423791  0.000000000000
  12   4  0.117243747962  0.000000000000      0.264284139920  0.000000000000      0.256178982215  0.000000000000
  12   5 -0.173962678723  0.000000000000     -0.264244564224  0.000000000000      0.026304423791  0.000000000000
  12   6  0.117243747962  0.000000000000      0.264284139920  0.000000000000     -0.256178982215  0.000000000000
  12   7  0.173962678723  0.000000000000     -0.264244564224  0.000000000000     -0.026304423791  0.000000000000
  12   8 -0.117243747962  0.000000000000      0.264284139920  0.000000000000      0.256178982215  0.000000000000
  13   1  0.097104065747  0.000000000000      0.204157429102  0.000000000000      0.071641768420  0.000000000000
  13   2 -0.079308080055  0.000000000000      0.432821722841  0.000000000000      0.011557951842  0.000000000000
  13   3  0.079308080055  0.000000000000      0.432821722841  0.000000000000     -0.011557951842  0.000000000000
  13   4 -0.097104065747  0.000000000000      0.204157429102  0.000000000000     -0.071641768420  0.000000000000
  13   5 -0.079308080055  0.000000000000     -0.432821722840  0.000000000000     -0.011557951842  0.000000000000
  13   6  0.097104065747  0.000000000000     -0.204157429102  0.000000000000     -0.071641768420  0.000000000000
  13   7  0.079308080055  0.000000000000     -0.432821722841  0.000000000000      0.011557951842  0.000000000000
  13   8 -0.097104065747  0.000000000000     -0.204157429102  0.000000000000      0.071641768420  0.000000000000
  14   1  0.131495240420  0.000000000000      0.025682443577  0.000000000000     -0.285761522040  0.000000000000
  14   2 -0.131490693153  0.000000000000     -0.243219575376  0.000000000000      0.271926832307  0.000000000000
  14   3 -0.131490693153  0.000000000000      0.243219575376  0.000000000000      0.271926832307  0.000000000000
  14   4  0.131495240420  0.000000000000     -0.025682443577  0.000000000000     -0.285761522040  0.000000000000
  14   5 -0.131490693153  0.000000000000      0.243219575376  0.000000000000     -0.271926832307  0.000000000000
  14   6  0.131495240420  0.000000000000     -0.025682443577  0.000000000000      0.285761522040  0.000000000000
  14   7 -0.131490693153  0.000000000000     -0.243219575376  0.000000000000     -0.271926832307  0.000000000000
  14   8  0.131495240420  0.000000000000      0.025682443577  0.000000000000      0.285761522040  0.000000000000
  15   1 -0.147317609738  0.000000000000      0.298620879205  0.000000000000     -0.242329715555  0.000000000000
  15   2  0.169640831360  0.000000000000     -0.030598351000  0.000000000000     -0.225133583843  0.000000000000
  15   3 -0.169640831360  0.000000000000     -0.030598351000  0.000000000000      0.225133583843  0.000000000000
  15   4  0.147317609738  0.000000000000      0.298620879205  0.000000000000      0.242329715555  0.000000000000
  15   5  0.169640831360  0.000000000000      0.030598351000  0.000000000000      0.225133583843  0.000000000000
  15   6 -0.147317609738  0.000000000000     -0.298620879205  0.000000000000      0.242329715555  0.000000000000
  15   7 -0.169640831360  0.000000000000      0.030598351000  0.000000000000     -0.225133583843  0.000000000000
  15   8  0.147317609738  0.000000000000     -0.298620879205  0.000000000000     -0.242329715555  0.000000000000
  16   1 -0.031138208918  0.000000000000      0.348717804181  0.000000000000      0.009810385181  0.000000000000
  16   2 -0.018888271141  0.000000000000      0.356194342704  0.000000000000     -0.009944082355  0.000000000000
  16   3 -0.018888271141  0.000000000000     -0.356194342704  0.000000000000     -0.009944082355  0.000000000000
  16   4 -0.031138208918  0.000000000000     -0.348717804181  0.000000000000      0.009810385181  0.000000000000
  16   5  0.018888271141  0.000000000000      0.356194342704  0.000000000000     -0.009944082355  0.000000000000
  16   6  0.031138208918  0.000000000000      0.348717804181  0.000000000000      0.009810385181  0.000000000000
  16   7  0.018888271141  0.000000000000     -0.356194342704  0.000000000000     -0.009944082355  0.000000000000
  16   8  0.031138208918  0.000000000000     -0.348717804181  0.000000000000      0.009810385181  0.000000000000
  17   1  0.002130916502  0.000000000000      0.087170392302  0.000000000000      0.298834709673  0.000000000000
  17   2  0.121887130576  0.000000000000     -0.087254341759  0.000000000000      0.361420538210  0.000000000000
  17   3 -0.121887130576  0.000000000000     -0.087254341759  0.000000000000     -0.361420538210  0.000000000000
  17   4 -0.002130916502  0.000000000000      0.087170392302  0.000000000000     -0.298834709673  0.000000000000
  17   5 -0.121887130576  0.000000000000     -0.087254341759  0.000000000000      0.361420538210  0.000000000000
  17   6 -0.002130916502  0.000000000000      0.087170392302  0.000000000000      0.298834709673  0.000000000000
  17   7  0.121887130576  0.000000000000     -0.087254341759  0.000000000000     -0.361420538210  0.000000000000
  17   8  0.002130916502  0.000000000000      0.087170392302  0.000000000000     -0.298834709673  0.000000000000
  18   1 -0.394866659865  0.000000000000      0.030444534488  0.000000000000      0.074704890248  0.000000000000
  18   2 -0.295770956900  0.000000000000      0.007816368057  0.000000000000     -0.005574590982  0.000000000000
  18   3  0.295770956900  0.000000000000      0.007816368057  0.000000000000      0.005574590982  0.000000000000
  18   4  0.394866659865  0.000000000000      0.030444534488  0.000000000000     -0.074704890248  0.000000000000
  18   5 -0.295770956900  0.000000000000     -0.007816368057  0.000000000000      0.005574590982  0.000000000000
  18   6 -0.394866659865  0.000000000000     -0.030444534488  0.000000000000     -0.074704890248  0.000000000000
  18   7  0.295770956900  0.000000000000     -0.007816368057  0.000000000000     -0.005574590982  0.000000000000
  18   8  0.394866659865  0.000000000000     -0.030444534488  0.000000000000      0.074704890248  0.000000000000
  19   1  0.347144637181  0.000000000000     -0.038249725035  0.000000000000     -0.013110913748  0.000000000000
  19   2  0.344240317401  0.000000000000      0.038211779862  0.000000000000     -0.088848900430  0.000000000000
  19   3 -0.344240317401  0.000000000000      0.038211779862  0.000000000000      0.088848900430  0.000000000000
  19   4 -0.347144637181  0.000000000000     -0.038249725035  0.000000000000      0.013110913748  0.000000000000
  19   5 -0.344240317401  0.000000000000      0.038211779862  0.000000000000     -0.088848900430  0.000000000000
  19   6 -0.347144637181  0.000000000000     -0.038249725035  0.000000000000     -0.013110913748  0.000000000000
  19   7  0.344240317401  0.000000000000      0.038211779862  0.000000000000      0.088848900430  0.000000000000
  19   8  0.347144637181  0.000000000000     -0.038249725035  0.000000000000      0.013110913748  0.000000000000
  20   1  0.008988385532  0.000000000000     -0.008702897980  0.000000000000     -0.348013670148  0.000000000000
  20   2 -0.008929978181  0.000000000000      0.017096126329  0.000000000000     -0.358270752137  0.000000000000
  20   3 -0.008929978181  0.000000000000     -0.017096126329  0.000000000000     -0.358270752137  0.000000000000
  20   4  0.008988385532  0.000000000000      0.008702897980  0.000000000000     -0.348013670148  0.000000000000
  20   5 -0.008929978181  0.000000000000     -0.017096126329  0.000000000000      0.358270752137  0.000000000000
  20   6  0.008988385532  0.000000000000      0.008702897980  0.000000000000      0.348013670148  0.000000000000
  20   7 -0.008929978181  0.000000000000      0.017096126329  0.000000000000      0.358270752137  0.000000000000
  20   8  0.008988385532  0.000000000000     -0.008702897980  0.000000000000      0.348013670148  0.000000000000
  21   1 -0.202741484997  0.000000000000     -0.215425269128  0.000000000000     -0.194030283084  0.000000000000
  21   2  0.202730972067  0.000000000000      0.214691299232  0.000000000000      0.194030646876  0.000000000000
  21   3  0.202730972067  0.000000000000     -0.214691299232  0.000000000000      0.194030646876  0.000000000000
  21   4 -0.202741484997  0.000000000000      0.215425269128  0.000000000000     -0.194030283084  0.000000000000
  21   5 -0.202730972067  0.000000000000      0.214691299232  0.000000000000      0.194030646876  0.000000000000
  21   6  0.202741484997  0.000000000000     -0.215425269128  0.000000000000     -0.194030283084  0.000000000000
  21   7 -0.202730972067  0.000000000000     -0.214691299232  0.000000000000      0.194030646876  0.000000000000
  21   8  0.202741484997  0.000000000000      0.215425269128  0.000000000000     -0.194030283084  0.000000000000
  22   1 -0.200785732153  0.000000000000     -0.212353997261  0.000000000000     -0.198087531486  0.000000000000
  22   2  0.200785656341  0.000000000000      0.214309533296  0.000000000000      0.197759307309  0.000000000000
  22   3  0.200785656341  0.000000000000     -0.214309533296  0.000000000000      0.197759307309  0.000000000000
  22   4 -0.200785732153  0.000000000000      0.212353997261  0.000000000000     -0.198087531486  0.000000000000
  22   5  0.200785656341  0.000000000000     -0.214309533296  0.000000000000     -0.197759307309  0.000000000000
  22   6 -0.200785732153  0.000000000000      0.212353997261  0.000000000000      0.198087531486  0.000000000000
  22   7  0.200785656341  0.000000000000      0.214309533296  0.000000000000     -0.197759307309  0.000000000000
  22   8 -0.200785732153  0.000000000000     -0.212353997261  0.000000000000      0.198087531486  0.000000000000
  23   1 -0.206659167799  0.000000000000     -0.212785298261  0.000000000000     -0.195479310091  0.000000000000
  23   2  0.206634877956  0.000000000000      0.211869971657  0.000000000000      0.190303407370  0.000000000000
  23   3 -0.206634877956  0.000000000000      0.211869971657  0.000000000000     -0.190303407370  0.000000000000
  23   4  0.206659167799  0.000000000000     -0.212785298261  0.000000000000      0.195479310091  0.000000000000
  23   5  0.206634877956  0.000000000000     -0.211869971657  0.000000000000     -0.190303407370  0.000000000000
  23   6 -0.206659167799  0.000000000000      0.212785298261  0.000000000000      0.195479310091  0.000000000000
  23   7 -0.206634877956  0.000000000000     -0.211869971657  0.000000000000      0.190303407370  0.000000000000
  23   8  0.206659167799  0.000000000000      0.212785298261  0.000000000000     -0.195479310091  0.000000000000
  24   1 -0.205054828418 -0.000000000000     -0.214701325150 -0.000000000000     -0.191774616429 -0.000000000000
  24   2  0.202175731033 -0.000000000000      0.214701698062 -0.000000000000      0.195208886697 -0.000000000000
  24   3 -0.202175731033 -0.000000000000      0.214701698062 -0.000000000000     -0.195208886697 -0.000000000000
  24   4  0.205054828418 -0.000000000000     -0.214701325150 -0.000000000000      0.191774616429 -0.000000000000
  24   5 -0.202175731033 -0.000000000000      0.214701698062 -0.000000000000      0.195208886697 -0.000000000000
  24   6  0.205054828418 -0.000000000000     -0.214701325150 -0.000000000000     -0.191774616429 -0.000000000000
  24   7  0.202175731033 -0.000000000000      0.214701698062 -0.000000000000     -0.195208886697 -0.000000000000
  24   8 -0.205054828418 -0.000000000000     -0.214701325150 -0.000000000000      0.191774616429 -0.000000000000
     q-pt=    1    0.000000  0.000000  0.000000      1.0000000000    0.000000  0.000000  1.000000
       1      -0.170605              0.0000000                                  
       2      -0.140871              0.0000000                                  
       3      -0.099611              0.0000000                                  
       4     244.369242              0.0188253                                  
       5     312.938221              0.0046025                                  
       6     345.369765              0.0000000                                  
       7     348.242744              0.0024129                                  
       8     422.456231              0.0890687                                  
       9     477.148679              0.0000000                                  
      10     489.103107              0.2911876                                  
      11     564.222627              0.2727736                                  
      12     568.019431              0.0201057                                  
      13     576.926954              0.0000000                                  
      14     602.650065              0.0406247                                  
      15     620.399041              0.0000000                                  
      16     750.820367              0.3523254                                  
      17     802.966684              0.3086833                                  
      18     897.725447              0.0000000                                  
      19     976.489243              0.2288511                                  
      20    1032.327188              0.1896697                                  
      21    4293.427581              0.0400812                                  
      22    4400.407016              0.0021362                                  
      23    4404.332381              0.0000000                                  
      24    4437.059331              0.0217741                                  
                        Phonon Eigenvectors
Mode Ion                X                                   Y                                   Z
   1   1 -0.000032665190  0.000000000000     -0.000076411301  0.000000000000     -0.353546000826  0.000000000000
   1   2 -0.000035271209  0.000000000000     -0.000060223637  0.000000000000     -0.353560763543  0.000000000000
   1   3 -0.000035271213  0.000000000000      0.000060233025  0.000000000000     -0.353560763541  0.000000000000
   1   4 -0.000032665188  0.000000000000      0.000076420689  0.000000000000     -0.353546000830  0.000000000000
   1   5  0.000035303309  0.000000000000     -0.000060223641  0.000000000000     -0.353560763546  0.000000000000
   1   6  0.000032697295  0.000000000000     -0.000076411301  0.000000000000     -0.353546000828  0.000000000000
   1   7  0.000035303312  0.000000000000      0.000060233030  0.000000000000     -0.353560763544  0.000000000000
   1   8  0.000032697292  0.000000000000      0.000076420689  0.000000000000     -0.353546000833  0.000000000000
   2   1  0.353584044855  0.000000000000     -0.000000000712  0.000000000000      0.000026401666  0.000000000000
   2   2  0.353522727493  0.000000000000      0.000048857849  0.000000000000      0.000035889156  0.000000000000
   2   3  0.353522727500  0.000000000000     -0.000048877745  0.000000000000      0.000035889151  0.000000000000
   2   4  0.353584044850  0.000000000000     -0.000000019184  0.000000000000      0.000026401675  0.000000000000
   2   5  0.353522727497  0.000000000000     -0.000048877740  0.000000000000     -0.000035857048  0.000000000000
   2   6  0.353584044847  0.000000000000     -0.000000019177  0.000000000000     -0.000026369574  0.000000000000
   2   7  0.353522727490  0.000000000000      0.000048857843  0.000000000000     -0.000035857053  0.000000000000
   2   8  0.353584044852  0.000000000000     -0.000000000719  0.000000000000     -0.000026369564  0.000000000000
   3   1 -0.000102767303  0.000000000000      0.353546897008  0.000000000000      0.000163185530  0.000000000000
   3   2  0.000123951767  0.000000000000      0.353559798063  0.000000000000     -0.000090876298  0.000000000000
   3   3 -0.000123931872  0.000000000000      0.353559798058  0.000000000000      0.000090885688  0.000000000000
   3   4  0.000102787202  0.000000000000      0.353546897006  0.000000000000     -0.000163176141  0.000000000000
   3   5 -0.000123931873  0.000000000000      0.353559798060  0.000000000000     -0.000090876300  0.000000000000
   3   6  0.000102787201  0.000000000000      0.353546897008  0.000000000000      0.000163185529  0.000000000000
   3   7  0.000123951766  0.000000000000      0.353559798061  0.000000000000      0.000090885686  0.000000000000
   3   8 -0.000102767304  0.000000000000      0.353546897006  0.000000000000     -0.000163176142  0.000000000000
   4   1  0.271463571064  0.000000000000      0.000327448622  0.000000000000     -0.241082390838  0.000000000000
   4   2 -0.213316844406  0.000000000000      0.000006822034  0.000000000000      0.269597156952  0.000000000000
   4   3  0.213316844406  0.000000000000      0.000006822034  0.000000000000     -0.269597156952  0.000000000000
   4   4 -0.271463571064  0.000000000000      0.000327448622  0.000000000000      0.241082390838  0.000000000000
   4   5  0.213316844406  0.000000000000      0.000006822034  0.000000000000      0.269597156952  0.000000000000
   4   6 -0.271463571064  0.000000000000      0.000327448622  0.000000000000     -0.241082390838  0.000000000000
   4   7 -0.213316844406  0.000000000000      0.000006822034  0.000000000000     -0.269597156952  0.000000000000
   4   8  0.271463571064  0.000000000000      0.000327448622  0.000000000000      0.241082390838  0.000000000000
   5   1 -0.291505345725  0.000000000000      0.119453155434  0.000000000000      0.160266459544  0.000000000000
   5   2  0.284975286164  0.000000000000     -0.134813716163  0.000000000000     -0.160264117087  0.000000000000
   5   3  0.284975286164  0.000000000000      0.134813716163  0.000000000000     -0.160264117087  0.000000000000
   5   4 -0.291505345725  0.000000000000     -0.119453155434  0.000000000000      0.160266459544  0.000000000000
   5   5 -0.284975286164  0.000000000000     -0.134813716163  0.000000000000     -0.160264117087  0.000000000000
   5   6  0.291505345725  0.000000000000      0.119453155434  0.000000000000      0.160266459544  0.000000000000
   5   7 -0.284975286164  0.000000000000      0.134813716163  0.000000000000     -0.160264117087  0.000000000000
   5   8  0.291505345725  0.000000000000     -0.119453155434  0.000000000000      0.160266459544  0.000000000000
   6   1 -0.098119824485  0.000000000000     -0.153772160159  0.000000000000      0.278042449797  0.000000000000
   6   2  0.193590082869  0.000000000000      0.092159328391  0.000000000000     -0.305693567023  0.000000000000
   6   3 -0.193590082869  0.000000000000      0.092159328391  0.000000000000      0.305693567022  0.000000000000
   6   4  0.098119824485  0.000000000000     -0.153772160159  0.000000000000     -0.278042449797  0.000000000000
   6   5  0.193590082869  0.000000000000     -0.092159328391  0.000000000000      0.305693567022  0.000000000000
   6   6 -0.098119824485  0.000000000000      0.153772160159  0.000000000000     -0.278042449797  0.000000000000
   6   7 -0.193590082869  0.000000000000     -0.092159328391  0.000000000000     -0.305693567023  0.000000000000
   6   8  0.098119824485  0.000000000000      0.153772160159  0.000000000000      0.278042449797  0.000000000000
   7   1  0.050900338128  0.000000000000     -0.257521241334  0.000000000000      0.247734322520  0.000000000000
   7   2 -0.004356890353  0.000000000000      0.241533837046  0.000000000000     -0.247713734690  0.000000000000
   7   3 -0.004356890352  0.000000000000     -0.241533837046  0.000000000000     -0.247713734690  0.000000000000
   7   4  0.050900338128  0.000000000000      0.257521241335  0.000000000000      0.247734322520  0.000000000000
   7   5  0.004356890352  0.000000000000      0.241533837046  0.000000000000     -0.247713734690  0.000000000000
   7   6 -0.050900338128  0.000000000000     -0.257521241335  0.000000000000      0.247734322520  0.000000000000
   7   7  0.004356890353  0.000000000000     -0.241533837046  0.000000000000     -0.247713734690  0.000000000000
   7   8 -0.050900338128  0.000000000000      0.257521241334  0.000000000000      0.247734322520  0.000000000000
   8   1 -0.258650119148  0.000000000000      0.208285153756  0.000000000000     -0.010357391787  0.000000000000
   8   2  0.258735007352  0.000000000000     -0.268766208968  0.000000000000     -0.020761886063  0.000000000000
   8   3  0.258735007352  0.000000000000      0.268766208968  0.000000000000     -0.020761886063  0.000000000000
   8   4 -0.258650119148  0.000000000000     -0.208285153756  0.000000000000     -0.010357391787  0.000000000000
   8   5  0.258735007352  0.000000000000      0.268766208968  0.000000000000      0.020761886063  0.000000000000
   8   6 -0.258650119148  0.000000000000     -0.208285153756  0.000000000000      0.010357391787  0.000000000000
   8   7  0.258735007352  0.000000000000     -0.268766208968  0.000000000000      0.020761886063  0.000000000000
   8   8 -0.258650119148  0.000000000000      0.208285153756  0.000000000000      0.010357391787  0.000000000000
   9   1  0.103020054412  0.000000000000     -0.222024738641  0.000000000000     -0.255035646110  0.000000000000
   9   2 -0.217431977534  0.000000000000      0.091026231628  0.000000000000     -0.263602472172  0.000000000000
   9   3  0.217431977534  0.000000000000      0.091026231628  0.000000000000      0.263602472172  0.000000000000
   9   4 -0.103020054412  0.000000000000     -0.222024738641  0.000000000000      0.255035646110  0.000000000000
   9   5 -0.217431977534  0.000000000000     -0.091026231628  0.000000000000      0.263602472172  0.000000000000
   9   6  0.103020054412  0.000000000000      0.222024738641  0.000000000000      0.255035646110  0.000000000000
   9   7  0.217431977534  0.000000000000     -0.091026231628  0.000000000000     -0.263602472172  0.000000000000
   9   8 -0.103020054412  0.000000000000      0.222024738641  0.000000000000     -0.255035646110  0.000000000000
  10   1  0.019792410871  0.000000000000      0.400983473763  0.000000000000     -0.088774385499  0.000000000000
  10   2 -0.019835584849  0.000000000000      0.269050380201  0.000000000000      0.090322008436  0.000000000000
  10   3 -0.019835584849  0.000000000000     -0.269050380201  0.000000000000      0.090322008436  0.000000000000
  10   4  0.019792410871  0.000000000000     -0.400983473763  0.000000000000     -0.088774385499  0.000000000000
  10   5 -0.019835584849  0.000000000000     -0.269050380201  0.000000000000     -0.090322008436  0.000000000000
  10   6  0.019792410871  0.000000000000     -0.400983473763  0.000000000000      0.088774385499  0.000000000000
  10   7 -0.019835584849  0.000000000000      0.269050380201  0.000000000000     -0.090322008436  0.000000000000
  10   8  0.019792410871  0.000000000000      0.400983473763  0.000000000000      0.088774385499  0.000000000000
  11   1  0.347765067694  0.000000000000      0.032601236834  0.000000000000     -0.014491597177  0.000000000000
  11   2  0.357173400400  0.000000000000     -0.002436244206  0.000000000000      0.014416567569  0.000000000000
  11   3  0.357173400400  0.000000000000      0.002436244206  0.000000000000      0.014416567569  0.000000000000
  11   4  0.347765067694  0.000000000000     -0.032601236834  0.000000000000     -0.014491597177  0.000000000000
  11   5 -0.357173400400  0.000000000000     -0.002436244206  0.000000000000      0.014416567569  0.000000000000
  11   6 -0.347765067694  0.000000000000      0.032601236834  0.000000000000     -0.014491597177  0.000000000000
  11   7 -0.357173400400  0.000000000000      0.002436244206  0.000000000000      0.014416567569  0.000000000000
  11   8 -0.347765067694  0.000000000000     -0.032601236834  0.000000000000     -0.014491597177  0.000000000000
  12   1 -0.117243747962  0.000000000000      0.264284139920  0.000000000000     -0.256178982215  0.000000000000
  12   2  0.173962678723  0.000000000000     -0.264244564224  0.000000000000      0.026304423791  0.000000000000
  12   3 -0.173962678723  0.000000000000     -0.264244564224  0.000000000000     -0.026304423791  0.000000000000
  12   4  0.117243747962  0.000000000000      0.264284139920  0.000000000000      0.256178982215  0.000000000000
  12   5 -0.173962678723  0.000000000000     -0.264244564224  0.000000000000      0.026304423791  0.000000000000
  12   6  0.117243747962  0.000000000000      0.264284139920  0.000000000000     -0.256178982215  0.000000000000
  12   7  0.173962678723  0.000000000000     -0.264244564224  0.000000000000     -0.026304423791  0.000000000000
  12   8 -0.117243747962  0.000000000000      0.264284139920  0.000000000000      0.256178982215  0.000000000000
  13   1  0.097104065747  0.000000000000      0.204157429102  0.000000000000      0.071641768420  0.000000000000
  13   2 -0.079308080055  0.000000000000      0.432821722841  0.000000000000      0.011557951842  0.000000000000
  13   3  0.079308080055  0.000000000000      0.432821722841  0.000000000000     -0.011557951842  0.000000000000
  13   4 -0.097104065747  0.000000000000      0.204157429102  0.000000000000     -0.071641768420  0.000000000000
  13   5 -0.079308080055  0.000000000000     -0.432821722841  0.000000000000     -0.011557951842  0.000000000000
  13   6  0.097104065747  0.000000000000     -0.204157429102  0.000000000000     -0.071641768420  0.000000000000
  13   7  0.079308080055  0.000000000000     -0.432821722841  0.000000000000      0.011557951842  0.000000000000
  13   8 -0.097104065747  0.000000000000     -0.204157429102  0.000000000000      0.071641768420  0.000000000000
  14   1 -0.131495240420  0.000000000000     -0.025682443577  0.000000000000      0.285761522040  0.000000000000
  14   2  0.131490693153  0.000000000000      0.243219575376  0.000000000000     -0.271926832307  0.000000000000
  14   3  0.131490693153  0.000000000000     -0.243219575376  0.000000000000     -0.271926832307  0.000000000000
  14   4 -0.131495240420  0.000000000000      0.025682443577  0.000000000000      0.285761522040  0.000000000000
  14   5  0.131490693153  0.000000000000     -0.243219575376  0.000000000000      0.271926832307  0.000000000000
  14   6 -0.131495240420  0.000000000000      0.025682443577  0.000000000000     -0.285761522040  0.000000000000
  14   7  0.131490693153  0.000000000000      0.243219575376  0.000000000000      0.271926832307  0.000000000000
  14   8 -0.131495240420  0.000000000000     -0.025682443577  0.000000000000     -0.285761522040  0.000000000000
  15   1  0.147317609738  0.000000000000     -0.298620879205  0.000000000000      0.242329715555  0.000000000000
  15   2 -0.169640831360  0.000000000000      0.030598351000  0.000000000000      0.225133583843  0.000000000000
  15   3  0.169640831360  0.000000000000      0.030598351000  0.000000000000     -0.225133583843  0.000000000000
  15   4 -0.147317609738  0.000000000000     -0.298620879205  0.000000000000     -0.242329715555  0.000000000000
  15   5 -0.169640831360  0.000000000000     -0.030598351000  0.000000000000     -0.225133583843  0.000000000000
  15   6  0.147317609738  0.000000000000      0.298620879205  0.000000000000     -0.242329715555  0.000000000000
  15   7  0.169640831360  0.000000000000     -0.030598351000  0.000000000000      0.225133583843  0.000000000000
  15   8 -0.147317609738  0.000000000000      0.298620879205  0.000000000000      0.242329715555  0.000000000000
  16   1 -0.020223574734  0.000000000000      0.349235783703  0.000000000000      0.009475388129  0.000000000000
  16   2 -0.008979353090  0.000000000000      0.356879026195  0.000000000000     -0.009608501762  0.000000000000
  16   3 -0.008979353090  0.000000000000     -0.356879026195  0.000000000000     -0.009608501762  0.000000000000
  16   4 -0.020223574734  0.000000000000     -0.349235783703  0.000000000000      0.009475388129  0.000000000000
  16   5  0.008979353090  0.000000000000      0.356879026195  0.000000000000     -0.009608501762  0.000000000000
  16   6  0.020223574734  0.000000000000      0.349235783703  0.000000000000      0.009475388129  0.000000000000
  16   7  0.008979353090  0.000000000000     -0.356879026195  0.000000000000     -0.009608501762  0.000000000000
  16   8  0.020223574734  0.000000000000     -0.349235783703  0.000000000000      0.009475388129  0.000000000000
  17   1  0.002130916502  0.000000000000      0.087170392302  0.000000000000      0.298834709673  0.000000000000
  17   2  0.121887130576  0.000000000000     -0.087254341759  0.000000000000      0.361420538210  0.000000000000
  17   3 -0.121887130576  0.000000000000     -0.087254341759  0.000000000000     -0.361420538210  0.000000000000
  17   4 -0.002130916502  0.000000000000      0.087170392302  0.000000000000     -0.298834709673  0.000000000000
  17   5 -0.121887130576  0.000000000000     -0.087254341759  0.000000000000      0.361420538210  0.000000000000
  17   6 -0.002130916502  0.000000000000      0.087170392302  0.000000000000      0.298834709673  0.000000000000
  17   7  0.121887130576  0.000000000000     -0.087254341759  0.000000000000     -0.361420538210  0.000000000000
  17   8  0.002130916502  0.000000000000      0.087170392302  0.000000000000     -0.298834709673  0.000000000000
  18   1 -0.394866659865  0.000000000000      0.030444534488  0.000000000000      0.074704890248  0.000000000000
  18   2 -0.295770956900  0.000000000000      0.007816368057  0.000000000000     -0.005574590982  0.000000000000
  18   3  0.295770956900  0.000000000000      0.007816368057  0.000000000000      0.005574590982  0.000000000000
  18   4  0.394866659865  0.000000000000      0.030444534488  0.000000000000     -0.074704890248  0.000000000000
  18   5 -0.295770956900  0.000000000000     -0.007816368057  0.000000000000      0.005574590982  0.000000000000
  18   6 -0.394866659865  0.000000000000     -0.030444534488  0.000000000000     -0.074704890248  0.000000000000
  18   7  0.295770956900  0.000000000000     -0.007816368057  0.000000000000     -0.005574590982  0.000000000000
  18   8  0.394866659865  0.000000000000     -0.030444534488  0.000000000000      0.074704890248  0.000000000000
  19   1  0.347144637181  0.000000000000     -0.038249725035  0.000000000000     -0.013110913748  0.000000000000
  19   2  0.344240317401  0.000000000000      0.038211779862  0.000000000000     -0.088848900430  0.000000000000
  19   3 -0.344240317401  0.000000000000      0.038211779862  0.000000000000      0.088848900430  0.000000000000
  19   4 -0.347144637181  0.000000000000     -0.038249725035  0.000000000000      0.013110913748  0.000000000000
  19   5 -0.344240317401  0.000000000000      0.038211779862  0.000000000000     -0.088848900430  0.000000000000
  19   6 -0.347144637181  0.000000000000     -0.038249725035  0.000000000000     -0.013110913748  0.000000000000
  19   7  0.344240317401  0.000000000000      0.038211779862  0.000000000000      0.088848900430  0.000000000000
  19   8  0.347144637181  0.000000000000     -0.038249725035  0.000000000000      0.013110913748  0.000000000000
  20   1  0.008988385532  0.000000000000     -0.008702897980  0.000000000000     -0.348013670148  0.000000000000
  20   2 -0.008929978181  0.000000000000      0.017096126329  0.000000000000     -0.358270752137  0.000000000000
  20   3 -0.008929978181  0.000000000000     -0.017096126329  0.000000000000     -0.358270752137  0.000000000000
  20   4  0.008988385532  0.000000000000      0.008702897980  0.000000000000     -0.348013670148  0.000000000000
  20   5 -0.008929978181  0.000000000000     -0.017096126329  0.000000000000      0.358270752137  0.000000000000
  20   6  0.008988385532  0.000000000000      0.008702897980  0.000000000000      0.348013670148  0.000000000000
  20   7 -0.008929978181  0.000000000000      0.017096126329  0.000000000000      0.358270752137  0.000000000000
  20   8  0.008988385532  0.000000000000     -0.008702897980  0.000000000000      0.348013670148  0.000000000000
  21   1 -0.202692507608  0.000000000000     -0.215372409600  0.000000000000     -0.194030418541  0.000000000000
  21   2  0.202772374356  0.000000000000      0.214751226412  0.000000000000      0.194030781517  0.000000000000
  21   3  0.202772374356  0.000000000000     -0.214751226412  0.000000000000      0.194030781517  0.000000000000
  21   4 -0.202692507608  0.000000000000      0.215372409600  0.000000000000     -0.194030418541  0.000000000000
  21   5 -0.202772374356  0.000000000000      0.214751226412  0.000000000000      0.194030781517  0.000000000000
  21   6  0.202692507608  0.000000000000     -0.215372409600  0.000000000000     -0.194030418541  0.000000000000
  21   7 -0.202772374356  0.000000000000     -0.214751226412  0.000000000000      0.194030781517  0.000000000000
  21   8  0.202692507608  0.000000000000      0.215372409600  0.000000000000     -0.194030418541  0.000000000000
  22   1 -0.200785732153  0.000000000000     -0.212353997261  0.000000000000     -0.198087531486  0.000000000000
  22   2  0.200785656341  0.000000000000      0.214309533296  0.000000000000      0.197759307309  0.000000000000
  22   3  0.200785656341  0.000000000000     -0.214309533296  0.000000000000      0.197759307309  0.000000000000
  22   4 -0.200785732153  0.000000000000      0.212353997261  0.000000000000     -0.198087531486  0.000000000000
  22   5  0.200785656341  0.000000000000     -0.214309533296  0.000000000000     -0.197759307309  0.000000000000
  22   6 -0.200785732153  0.000000000000      0.212353997261  0.000000000000      0.198087531486  0.000000000000
  22   7  0.200785656341  0.000000000000      0.214309533296  0.000000000000     -0.197759307309  0.000000000000
  22   8 -0.200785732153  0.000000000000     -0.212353997261  0.000000000000      0.198087531486  0.000000000000
  23   1 -0.206659167799  0.000000000000     -0.212785298261  0.000000000000     -0.195479310091  0.000000000000
  23   2  0.206634877956  0.000000000000      0.211869971657  0.000000000000      0.190303407370  0.000000000000
  23   3 -0.206634877956  0.000000000000      0.211869971657  0.000000000000     -0.190303407370  0.000000000000
  23   4  0.206659167799  0.000000000000     -0.212785298261  0.000000000000      0.195479310091  0.000000000000
  23   5  0.206634877956  0.000000000000     -0.211869971657  0.000000000000     -0.190303407370  0.000000000000
  23   6 -0.206659167799  0.000000000000      0.212785298261  0.000000000000      0.195479310091  0.000000000000
  23   7 -0.206634877956  0.000000000000     -0.211869971657  0.000000000000      0.190303407370  0.000000000000
  23   8  0.206659167799  0.000000000000      0.212785298261  0.000000000000     -0.195479310091  0.000000000000
  24   1 -0.205054828418 -0.000000000000     -0.214701325150 -0.000000000000     -0.191774616429 -0.000000000000
  24   2  0.202175731033 -0.000000000000      0.214701698062 -0.000000000000      0.195208886697 -0.000000000000
  24   3 -0.202175731033 -0.000000000000      0.214701698062 -0.000000000000     -0.195208886697 -0.000000000000
  24   4  0.205054828418 -0.000000000000     -0.214701325150 -0.000000000000      0.191774616429 -0.000000000000
  24   5 -0.202175731033 -0.000000000000      0.214701698062 -0.000000000000      0.195208886697 -0.000000000000
  24   6  0.205054828418 -0.000000000000     -0.214701325150 -0.000000000000     -0.191774616429 -0.000000000000
  24   7  0.202175731033 -0.000000000000      0.214701698062 -0.000000000000     -0.195208886697 -0.000000000000
  24   8 -0.205054828418 -0.000000000000     -0.214701325150 -0.000000000000      0.191774616429 -0.000000000000
