Number of k-points    64
Number of spin components 1
Number of electrons  16.00    
Number of eigenvalues      8
Fermi energy (in atomic units)    -0.069474
Unit cell vectors
    5.836627    0.000000    0.000000
    0.000000    5.827197    0.000000
    0.000000    0.000000   11.533938
K-point     1 -0.43750000 -0.43750000 -0.43750000  0.01562500
Spin component 1
   -0.25355767
   -0.24228047
   -0.20617596
   -0.20455938
   -0.19900495
   -0.19749445
   -0.17011521
   -0.16984430
K-point     9 -0.31250000 -0.43750000 -0.06250000  0.01562500
Spin component 1
   -0.31493298
   -0.25753316
   -0.22612060
   -0.20546269
   -0.18803713
   -0.17568703
   -0.15863120
   -0.12815259
K-point    17 -0.18750000 -0.43750000 -0.43750000  0.01562500
Spin component 1
   -0.32270720
   -0.30827478
   -0.26482301
   -0.25182550
   -0.14729167
   -0.12880175
   -0.12665800
   -0.11816443
K-point    25 -0.18750000 -0.18750000 -0.18750000  0.01562500
Spin component 1
   -0.41899719
   -0.34138608
   -0.25504117
   -0.14236176
   -0.13446781
   -0.11609910
   -0.11310098
   -0.10692691
K-point    33  0.06250000 -0.43750000 -0.18750000  0.01562500
Spin component 1
   -0.35622818
   -0.29566396
   -0.28284145
   -0.22822478
   -0.20419190
   -0.16056380
   -0.08540511
   -0.07676438
K-point    41  0.06250000 -0.18750000 -0.18750000  0.01562500
Spin component 1
   -0.43507338
   -0.35643253
   -0.26814053
   -0.15104835
   -0.11120750
   -0.11092339
   -0.08585405
   -0.07804802
K-point    49  0.31250000 -0.43750000 -0.31250000  0.01562500
Spin component 1
   -0.30444230
   -0.26458788
   -0.24842877
   -0.21564827
   -0.16729807
   -0.15959571
   -0.15673460
   -0.13414537
K-point    57  0.43750000 -0.43750000  0.06250000  0.01562500
Spin component 1
   -0.27166342
   -0.21914059
   -0.21736756
   -0.20123834
   -0.18875998
   -0.18248998
   -0.18134876
   -0.17305973
K-point     2 -0.43750000 -0.31250000 -0.31250000  0.01562500
Spin component 1
   -0.30386565
   -0.26411440
   -0.24681698
   -0.21442880
   -0.16767267
   -0.16080963
   -0.15929285
   -0.13542691
K-point    10 -0.31250000 -0.43750000  0.18750000  0.01562500
Spin component 1
   -0.31141471
   -0.25446470
   -0.24614411
   -0.20178256
   -0.18539409
   -0.16596006
   -0.15787721
   -0.12998916
K-point    18 -0.18750000 -0.43750000 -0.06250000  0.01562500
Spin component 1
   -0.34482356
   -0.28504849
   -0.24708715
   -0.22228425
   -0.19917545
   -0.17936276
   -0.10499938
   -0.09417221
K-point    26 -0.18750000 -0.18750000 -0.06250000  0.01562500
Spin component 1
   -0.42297799
   -0.31529736
   -0.28633276
   -0.14433421
   -0.13626369
   -0.11265695
   -0.11161716
   -0.09501691
K-point    34  0.06250000 -0.43750000 -0.06250000  0.01562500
Spin component 1
   -0.36003719
   -0.29923870
   -0.25867040
   -0.23219338
   -0.20681525
   -0.18386533
   -0.07734321
   -0.07224388
K-point    42  0.06250000 -0.18750000 -0.06250000  0.01562500
Spin component 1
   -0.43909400
   -0.32986868
   -0.30027694
   -0.15351047
   -0.10134033
   -0.09777602
   -0.09247321
   -0.07833949
K-point    50  0.31250000 -0.18750000  0.31250000  0.01562500
Spin component 1
   -0.37939457
   -0.33391308
   -0.20300574
   -0.19991592
   -0.17334834
   -0.12706595
   -0.12626549
   -0.11914079
K-point    58  0.43750000 -0.18750000 -0.31250000  0.01562500
Spin component 1
   -0.33281275
   -0.28986945
   -0.27288593
   -0.23460352
   -0.17152142
   -0.14439907
   -0.11548492
   -0.11283864
K-point     3 -0.43750000 -0.18750000  0.06250000  0.01562500
Spin component 1
   -0.34391560
   -0.28304248
   -0.24659690
   -0.22193695
   -0.19830816
   -0.17893175
   -0.11036563
   -0.09734523
K-point    11 -0.31250000 -0.31250000 -0.43750000  0.01562500
Spin component 1
   -0.33776498
   -0.32316954
   -0.17990138
   -0.17651731
   -0.17302535
   -0.17004456
   -0.15932007
   -0.13820619
K-point    19 -0.18750000 -0.43750000  0.18750000  0.01562500
Spin component 1
   -0.34110133
   -0.28162279
   -0.27007525
   -0.21839687
   -0.19657549
   -0.16024736
   -0.10687812
   -0.09960698
K-point    27 -0.18750000 -0.06250000 -0.43750000  0.01562500
Spin component 1
   -0.41495270
   -0.39911207
   -0.19952730
   -0.16577501
   -0.13190930
   -0.12413093
   -0.08829814
   -0.08724070
K-point    35  0.06250000 -0.31250000 -0.43750000  0.01562500
Spin component 1
   -0.38359968
   -0.36810386
   -0.20926249
   -0.19744368
   -0.17711978
   -0.14628399
   -0.09267384
   -0.08422267
K-point    43  0.06250000 -0.06250000 -0.43750000  0.01562500
Spin component 1
   -0.43099563
   -0.41499543
   -0.21134747
   -0.17616022
   -0.08852484
   -0.08383176
   -0.07626426
   -0.07345999
K-point    51  0.31250000 -0.06250000 -0.43750000  0.01562500
Spin component 1
   -0.38316952
   -0.36769082
   -0.20532727
   -0.19379589
   -0.17744042
   -0.14694361
   -0.09815281
   -0.09175331
K-point    59  0.43750000 -0.06250000  0.06250000  0.01562500
Spin component 1
   -0.35899053
   -0.29708651
   -0.25806339
   -0.23173995
   -0.20574864
   -0.18324363
   -0.08145948
   -0.07976056
K-point     4 -0.43750000 -0.06250000  0.43750000  0.01562500
Spin component 1
   -0.33636860
   -0.32155145
   -0.27602877
   -0.26238554
   -0.14874076
   -0.12402529
   -0.11977842
   -0.10367042
K-point    12 -0.31250000 -0.31250000 -0.18750000  0.01562500
Spin component 1
   -0.35635145
   -0.28447595
   -0.20972547
   -0.19005582
   -0.18626162
   -0.16031674
   -0.15863578
   -0.11056380
K-point    20 -0.18750000 -0.31250000 -0.43750000  0.01562500
Spin component 1
   -0.36816206
   -0.35293610
   -0.19865964
   -0.18825154
   -0.16991756
   -0.14206535
   -0.12073043
   -0.11968131
K-point    28 -0.18750000 -0.06250000 -0.31250000  0.01562500
Spin component 1
   -0.42692045
   -0.37951479
   -0.23417889
   -0.13827791
   -0.13533942
   -0.11557538
   -0.08980859
   -0.08732324
K-point    36  0.06250000 -0.31250000 -0.31250000  0.01562500
Spin component 1
   -0.39532544
   -0.34897485
   -0.21843353
   -0.20941184
   -0.18337705
   -0.11918471
   -0.10403767
   -0.07851986
K-point    44  0.06250000 -0.06250000 -0.31250000  0.01562500
Spin component 1
   -0.44307518
   -0.39517845
   -0.24713109
   -0.14403259
   -0.09256244
   -0.07904154
   -0.07893638
   -0.07108932
K-point    52  0.31250000 -0.06250000 -0.31250000  0.01562500
Spin component 1
   -0.39488535
   -0.34858764
   -0.21431785
   -0.20948247
   -0.18016644
   -0.12025423
   -0.10735836
   -0.08775127
K-point    60  0.43750000  0.06250000 -0.31250000  0.01562500
Spin component 1
   -0.34762207
   -0.30335927
   -0.28647301
   -0.24582319
   -0.17597090
   -0.13918553
   -0.10358581
   -0.09155732
K-point     5 -0.43750000  0.06250000 -0.18750000  0.01562500
Spin component 1
   -0.35518848
   -0.29353063
   -0.28206188
   -0.22674145
   -0.20409044
   -0.16077982
   -0.08901834
   -0.08363394
K-point    13 -0.31250000 -0.31250000 -0.06250000  0.01562500
Spin component 1
   -0.36010978
   -0.26114291
   -0.23592226
   -0.19229288
   -0.18842353
   -0.15686081
   -0.15591651
   -0.10503196
K-point    21 -0.18750000 -0.31250000 -0.18750000  0.01562500
Spin component 1
   -0.38744900
   -0.31212889
   -0.23017716
   -0.21257542
   -0.16340227
   -0.13019838
   -0.12067995
   -0.10103540
K-point    29 -0.18750000 -0.06250000 -0.18750000  0.01562500
Spin component 1
   -0.43493887
   -0.35632361
   -0.26809772
   -0.14276891
   -0.11156785
   -0.10702939
   -0.09117271
   -0.08916869
K-point    37  0.06250000 -0.31250000 -0.18750000  0.01562500
Spin component 1
   -0.40318917
   -0.32640833
   -0.24149449
   -0.22468437
   -0.16761536
   -0.11802454
   -0.09861329
   -0.07512214
K-point    45  0.06250000 -0.06250000 -0.18750000  0.01562500
Spin component 1
   -0.45116436
   -0.37169551
   -0.28192094
   -0.11856092
   -0.09550887
   -0.08100113
   -0.07477928
   -0.06971650
K-point    53  0.31250000 -0.06250000 -0.18750000  0.01562500
Spin component 1
   -0.40274274
   -0.32605922
   -0.24139065
   -0.22046195
   -0.16505407
   -0.11932999
   -0.10008882
   -0.08554487
K-point    61  0.43750000  0.18750000  0.43750000  0.01562500
Spin component 1
   -0.32184706
   -0.30745590
   -0.26294904
   -0.25006652
   -0.14828031
   -0.13127705
   -0.12831217
   -0.12170951
K-point     6 -0.43750000  0.18750000  0.18750000  0.01562500
Spin component 1
   -0.34019980
   -0.27963421
   -0.26941863
   -0.21709220
   -0.19655857
   -0.16063948
   -0.11193380
   -0.10247627
K-point    14 -0.31250000 -0.18750000 -0.18750000  0.01562500
Spin component 1
   -0.38713735
   -0.31189094
   -0.23012248
   -0.20854753
   -0.16122857
   -0.13169180
   -0.12748481
   -0.10207044
K-point    22 -0.18750000 -0.31250000 -0.06250000  0.01562500
Spin component 1
   -0.39133825
   -0.28710297
   -0.25956613
   -0.21547748
   -0.15074728
   -0.13926436
   -0.12120686
   -0.09186423
K-point    30 -0.18750000 -0.06250000 -0.06250000  0.01562500
Spin component 1
   -0.43895901
   -0.32977864
   -0.30019795
   -0.14508618
   -0.09941671
   -0.09825829
   -0.09309377
   -0.09196079
K-point    38  0.06250000 -0.31250000 -0.06250000  0.01562500
Spin component 1
   -0.40713457
   -0.30068173
   -0.27218778
   -0.22785050
   -0.15093522
   -0.13385632
   -0.08739584
   -0.07356504
K-point    46  0.06250000 -0.06250000 -0.06250000  0.01562500
Spin component 1
   -0.45521930
   -0.34476602
   -0.31468842
   -0.10412652
   -0.09705780
   -0.08212159
   -0.07166568
   -0.06972308
K-point    54  0.31250000  0.18750000 -0.43750000  0.01562500
Spin component 1
   -0.36786290
   -0.35264888
   -0.19495327
   -0.18487039
   -0.17017832
   -0.14256496
   -0.12519734
   -0.12514091
K-point    62  0.43750000  0.31250000  0.18750000  0.01562500
Spin component 1
   -0.31082584
   -0.25280896
   -0.24574817
   -0.20085004
   -0.18547867
   -0.16652036
   -0.16062957
   -0.13145125
K-point     7 -0.43750000  0.31250000 -0.06250000  0.01562500
Spin component 1
   -0.31433908
   -0.25585690
   -0.22585307
   -0.20530394
   -0.18754517
   -0.17557692
   -0.16147267
   -0.12970195
K-point    15 -0.31250000 -0.18750000 -0.06250000  0.01562500
Spin component 1
   -0.39102427
   -0.28691278
   -0.25941286
   -0.21139325
   -0.14961337
   -0.13922381
   -0.12824591
   -0.09306194
K-point    23 -0.18750000 -0.18750000 -0.43750000  0.01562500
Spin component 1
   -0.39922597
   -0.38357412
   -0.18896149
   -0.15699753
   -0.13341033
   -0.12738523
   -0.12652255
   -0.12142786
K-point    31 -0.06250000  0.43750000  0.43750000  0.01562500
Spin component 1
   -0.33736253
   -0.32250015
   -0.27805327
   -0.26429987
   -0.14771172
   -0.12216950
   -0.11710612
   -0.09946357
K-point    39  0.06250000 -0.18750000 -0.43750000  0.01562500
Spin component 1
   -0.41508341
   -0.39923862
   -0.19945537
   -0.16560782
   -0.13935374
   -0.13078453
   -0.07871791
   -0.07772190
K-point    47  0.18750000  0.31250000  0.31250000  0.01562500
Spin component 1
   -0.37970198
   -0.33418157
   -0.20690376
   -0.19985114
   -0.17624020
   -0.12404115
   -0.11995827
   -0.11836015
K-point    55  0.31250000  0.31250000  0.31250000  0.01562500
Spin component 1
   -0.34887284
   -0.30530170
   -0.18586887
   -0.18367213
   -0.18209879
   -0.16611219
   -0.16369957
   -0.12168680
K-point    63  0.43750000  0.31250000  0.43750000  0.01562500
Spin component 1
   -0.29359106
   -0.28022626
   -0.23813001
   -0.22713762
   -0.15831960
   -0.15820148
   -0.15308990
   -0.14240822
K-point     8 -0.31250000 -0.43750000 -0.43750000  0.01562500
Spin component 1
   -0.29414777
   -0.28075063
   -0.23966521
   -0.22854850
   -0.15652364
   -0.15595775
   -0.15238744
   -0.14138945
K-point    16 -0.31250000 -0.06250000 -0.06250000  0.01562500
Spin component 1
   -0.40668507
   -0.30039865
   -0.27195300
   -0.22357882
   -0.14934105
   -0.13344833
   -0.08914256
   -0.08459549
K-point    24 -0.18750000 -0.18750000 -0.31250000  0.01562500
Spin component 1
   -0.41106259
   -0.36423236
   -0.22219951
   -0.13859766
   -0.13108265
   -0.12867045
   -0.12129624
   -0.11663233
K-point    32  0.06250000 -0.43750000 -0.31250000  0.01562500
Spin component 1
   -0.34864514
   -0.30424089
   -0.28856554
   -0.24756560
   -0.17559458
   -0.13788034
   -0.10080594
   -0.08586281
K-point    40  0.06250000 -0.18750000 -0.31250000  0.01562500
Spin component 1
   -0.42705358
   -0.37963303
   -0.23417440
   -0.14624473
   -0.13505373
   -0.12108845
   -0.08128271
   -0.07769442
K-point    48  0.18750000  0.43750000  0.31250000  0.01562500
Spin component 1
   -0.33369871
   -0.29062454
   -0.27483294
   -0.23618285
   -0.17110156
   -0.14302167
   -0.11104691
   -0.11051243
K-point    56  0.43750000 -0.43750000 -0.18750000  0.01562500
Spin component 1
   -0.26855323
   -0.21684751
   -0.21516755
   -0.21499141
   -0.18588483
   -0.18465171
   -0.17908823
   -0.17222020
K-point    64  0.43750000  0.43750000 -0.31250000  0.01562500
Spin component 1
   -0.26244057
   -0.22920054
   -0.21233900
   -0.21064716
   -0.19181977
   -0.19044633
   -0.17290568
   -0.17089977
