Number of k-points   128
Number of spin components 1
Number of electrons  24.00    
Number of eigenvalues     12
Fermi energy (in atomic units)    -0.070209
Unit cell vectors
   19.865320    0.000000    0.003810
    0.000000    4.127299    0.000000
  -13.246292    0.000000    7.113460
K-point     1 -0.43750000 -0.43750000 -0.31250000  0.00781250
Spin component 1
   -0.26086290
   -0.22655671
   -0.18698654
   -0.18318962
   -0.17293750
   -0.16612274
   -0.13059952
   -0.12680569
   -0.10776085
   -0.10178464
   -0.09132126
   -0.08243752
K-point    17 -0.43750000  0.06250000  0.18750000  0.00781250
Spin component 1
   -0.44457630
   -0.37772805
   -0.34960170
   -0.33674213
   -0.33437136
   -0.20577144
   -0.20490490
   -0.19163904
   -0.17866515
   -0.17101484
   -0.13911239
   -0.09645702
K-point    33 -0.31250000 -0.31250000  0.18750000  0.00781250
Spin component 1
   -0.35795760
   -0.30271329
   -0.26176203
   -0.22066096
   -0.21809997
   -0.16546527
   -0.13884705
   -0.13582239
   -0.12452217
   -0.12075916
   -0.10324760
   -0.09357352
K-point    49 -0.31250000 -0.06250000  0.31250000  0.00781250
Spin component 1
   -0.44870809
   -0.41785319
   -0.31847339
   -0.27974593
   -0.27411651
   -0.24690176
   -0.23632574
   -0.22665702
   -0.20912040
   -0.19040023
   -0.10722484
   -0.09375442
K-point    65 -0.18750000 -0.18750000  0.06250000  0.00781250
Spin component 1
   -0.42188096
   -0.34448618
   -0.33906208
   -0.27837181
   -0.26507560
   -0.20405859
   -0.18893474
   -0.17256839
   -0.15894673
   -0.14587608
   -0.13584195
   -0.08970105
K-point    81 -0.06250000 -0.31250000 -0.31250000  0.00781250
Spin component 1
   -0.32178287
   -0.31502151
   -0.29491940
   -0.23508883
   -0.21493235
   -0.19049252
   -0.17403076
   -0.10948464
   -0.10749383
   -0.09799926
   -0.09198995
   -0.07304106
K-point    97  0.06250000 -0.18750000 -0.18750000  0.00781250
Spin component 1
   -0.41732126
   -0.37478929
   -0.30110323
   -0.28843888
   -0.24120475
   -0.20303193
   -0.20234709
   -0.19161241
   -0.19012326
   -0.14771092
   -0.10539014
   -0.07651562
K-point   113  0.18750000  0.43750000 -0.43750000  0.00781250
Spin component 1
   -0.24884085
   -0.24656203
   -0.19315645
   -0.17997331
   -0.15835489
   -0.14936265
   -0.14364633
   -0.12493474
   -0.11764101
   -0.10404863
   -0.08781773
   -0.08390487
K-point     2 -0.43750000 -0.43750000 -0.06250000  0.00781250
Spin component 1
   -0.23638320
   -0.23386023
   -0.19888277
   -0.18680450
   -0.18037745
   -0.17198277
   -0.12658556
   -0.12167117
   -0.10968015
   -0.10726311
   -0.09201530
   -0.08834691
K-point    18 -0.43750000  0.06250000  0.31250000  0.00781250
Spin component 1
   -0.44817082
   -0.40927193
   -0.32571148
   -0.31078774
   -0.28792703
   -0.23719942
   -0.22299317
   -0.20727744
   -0.19616525
   -0.18502207
   -0.11080396
   -0.10521400
K-point    34 -0.31250000 -0.31250000  0.31250000  0.00781250
Spin component 1
   -0.35456687
   -0.32552721
   -0.23495769
   -0.20186789
   -0.19597177
   -0.17504902
   -0.16634302
   -0.15300569
   -0.14295653
   -0.12258392
   -0.08900542
   -0.08650639
K-point    50 -0.31250000 -0.06250000  0.43750000  0.00781250
Spin component 1
   -0.43431409
   -0.43216374
   -0.31882060
   -0.27929179
   -0.27364638
   -0.26081426
   -0.24017019
   -0.23585430
   -0.19719354
   -0.17892331
   -0.10202916
   -0.08496619
K-point    66 -0.18750000 -0.18750000  0.18750000  0.00781250
Spin component 1
   -0.42187780
   -0.37139257
   -0.31272901
   -0.24948780
   -0.24028200
   -0.23024840
   -0.21177416
   -0.18320007
   -0.17240502
   -0.15728313
   -0.10921464
   -0.08950737
K-point    82 -0.06250000  0.18750000 -0.43750000  0.00781250
Spin component 1
   -0.37484061
   -0.36882010
   -0.34772592
   -0.33422154
   -0.26328246
   -0.24097954
   -0.18965556
   -0.16717815
   -0.11106557
   -0.10889146
   -0.10103463
   -0.09439747
K-point    98  0.06250000 -0.18750000 -0.06250000  0.00781250
Spin component 1
   -0.42443690
   -0.35415516
   -0.33427593
   -0.24510245
   -0.23863898
   -0.23269801
   -0.22229506
   -0.16573261
   -0.15869712
   -0.15085025
   -0.12975370
   -0.09414507
K-point   114  0.18750000  0.43750000 -0.31250000  0.00781250
Spin component 1
   -0.26308385
   -0.24340586
   -0.17439983
   -0.17335905
   -0.16828267
   -0.15594729
   -0.13331260
   -0.12991410
   -0.11833340
   -0.09600867
   -0.09050492
   -0.07946190
K-point     3 -0.43750000 -0.43750000  0.43750000  0.00781250
Spin component 1
   -0.26092799
   -0.25250487
   -0.16977259
   -0.16733353
   -0.15611214
   -0.15161425
   -0.14849133
   -0.14360209
   -0.09901147
   -0.09450161
   -0.09020181
   -0.08758750
K-point    19 -0.43750000  0.18750000  0.31250000  0.00781250
Spin component 1
   -0.41622509
   -0.37798719
   -0.29613787
   -0.28155797
   -0.25969069
   -0.21118358
   -0.19775361
   -0.18141472
   -0.17118043
   -0.16047704
   -0.09590536
   -0.09451519
K-point    35 -0.31250000 -0.31250000  0.43750000  0.00781250
Spin component 1
   -0.34110125
   -0.33881860
   -0.23508686
   -0.20175400
   -0.19598373
   -0.18598208
   -0.16739160
   -0.16162673
   -0.13477254
   -0.11509870
   -0.09023832
   -0.07776704
K-point    51 -0.18750000 -0.43750000 -0.43750000  0.00781250
Spin component 1
   -0.24605021
   -0.22388558
   -0.20906164
   -0.19887375
   -0.15717927
   -0.15369397
   -0.14009022
   -0.12375581
   -0.11233122
   -0.10641944
   -0.09052591
   -0.08799727
K-point    67 -0.18750000 -0.18750000  0.31250000  0.00781250
Spin component 1
   -0.41122419
   -0.38882013
   -0.29010400
   -0.27698763
   -0.22721248
   -0.21978710
   -0.21727219
   -0.20751378
   -0.18168899
   -0.14958545
   -0.09459619
   -0.07329224
K-point    83 -0.06250000  0.43750000  0.43750000  0.00781250
Spin component 1
   -0.23978897
   -0.23303032
   -0.21376539
   -0.19232834
   -0.15280459
   -0.14880150
   -0.13924489
   -0.13380565
   -0.11265095
   -0.10635478
   -0.09063448
   -0.08681194
K-point    99  0.06250000 -0.18750000  0.06250000  0.00781250
Spin component 1
   -0.42087796
   -0.35843968
   -0.32341019
   -0.28451564
   -0.25396191
   -0.19820378
   -0.19629197
   -0.18659309
   -0.16547006
   -0.14940917
   -0.12245426
   -0.08274826
K-point   115  0.31250000 -0.18750000  0.18750000  0.00781250
Spin component 1
   -0.37949177
   -0.36770438
   -0.34955119
   -0.30424625
   -0.29999321
   -0.23667343
   -0.19438531
   -0.13309913
   -0.12807465
   -0.11417194
   -0.10249947
   -0.08999495
K-point     4 -0.43750000 -0.31250000 -0.43750000  0.00781250
Spin component 1
   -0.34760127
   -0.33053505
   -0.23221919
   -0.21875164
   -0.19843096
   -0.17875762
   -0.16795096
   -0.14878307
   -0.12662382
   -0.12180245
   -0.09476330
   -0.07945091
K-point    20 -0.43750000  0.31250000 -0.31250000  0.00781250
Spin component 1
   -0.34760295
   -0.30437169
   -0.25590011
   -0.24344201
   -0.24092301
   -0.14952083
   -0.14441074
   -0.13553490
   -0.12605037
   -0.10785614
   -0.09701618
   -0.08336497
K-point    36 -0.31250000 -0.18750000 -0.43750000  0.00781250
Spin component 1
   -0.40397890
   -0.37810996
   -0.31908001
   -0.28479593
   -0.27400821
   -0.21509447
   -0.20762435
   -0.17156284
   -0.15325741
   -0.13736015
   -0.09681508
   -0.08497378
K-point    52 -0.18750000 -0.43750000  0.18750000  0.00781250
Spin component 1
   -0.27168306
   -0.23026957
   -0.18742163
   -0.17411249
   -0.16008353
   -0.15533922
   -0.13897724
   -0.12377691
   -0.11574185
   -0.10509994
   -0.08001880
   -0.07750365
K-point    68 -0.18750000 -0.18750000  0.43750000  0.00781250
Spin component 1
   -0.39585653
   -0.39010220
   -0.32297020
   -0.27055348
   -0.24903469
   -0.23470051
   -0.23243748
   -0.17086053
   -0.14897193
   -0.13466723
   -0.09803712
   -0.07512567
K-point    84  0.06250000 -0.43750000 -0.18750000  0.00781250
Spin component 1
   -0.26807506
   -0.23193828
   -0.18212358
   -0.17478709
   -0.17427963
   -0.15205031
   -0.13105175
   -0.12437019
   -0.12275019
   -0.10151337
   -0.08597598
   -0.07621253
K-point   100  0.06250000 -0.18750000  0.18750000  0.00781250
Spin component 1
   -0.40670214
   -0.37225479
   -0.32367616
   -0.28424689
   -0.26660494
   -0.23679345
   -0.19643986
   -0.16507867
   -0.15499327
   -0.13994912
   -0.10441507
   -0.07025986
K-point   116  0.31250000  0.31250000  0.06250000  0.00781250
Spin component 1
   -0.33443740
   -0.29318921
   -0.28990128
   -0.24665421
   -0.23230559
   -0.20133389
   -0.13320724
   -0.11287151
   -0.10736366
   -0.10057920
   -0.09684416
   -0.07642398
K-point     5 -0.43750000 -0.31250000  0.31250000  0.00781250
Spin component 1
   -0.35399221
   -0.31770092
   -0.24086725
   -0.22730781
   -0.20918286
   -0.16750175
   -0.15667803
   -0.13628280
   -0.12933268
   -0.11990270
   -0.10114578
   -0.08486539
K-point    21 -0.43750000  0.31250000 -0.18750000  0.00781250
Spin component 1
   -0.33754755
   -0.28213810
   -0.27141666
   -0.26964060
   -0.25657609
   -0.16486864
   -0.14283851
   -0.11577953
   -0.11082268
   -0.09943710
   -0.09300138
   -0.08200734
K-point    37 -0.31250000 -0.18750000 -0.31250000  0.00781250
Spin component 1
   -0.39694175
   -0.34391915
   -0.33918580
   -0.33036157
   -0.29359501
   -0.20892875
   -0.18694939
   -0.16395621
   -0.13568163
   -0.11555056
   -0.10648301
   -0.08966219
K-point    53 -0.18750000 -0.31250000 -0.43750000  0.00781250
Spin component 1
   -0.33102344
   -0.29995471
   -0.28754884
   -0.26244930
   -0.21711287
   -0.17891448
   -0.14905068
   -0.13055957
   -0.11150750
   -0.09382422
   -0.08817385
   -0.07712195
K-point    69 -0.18750000 -0.06250000 -0.43750000  0.00781250
Spin component 1
   -0.42397620
   -0.38984801
   -0.37741145
   -0.34848315
   -0.30037824
   -0.25797272
   -0.21254488
   -0.19072102
   -0.15549838
   -0.13472403
   -0.10818571
   -0.10715029
K-point    85  0.06250000 -0.43750000 -0.06250000  0.00781250
Spin component 1
   -0.27386390
   -0.21698640
   -0.20227264
   -0.17515452
   -0.15814545
   -0.15664780
   -0.13297121
   -0.12400647
   -0.11641290
   -0.11019476
   -0.07773607
   -0.07498053
K-point   101  0.06250000 -0.18750000  0.31250000  0.00781250
Spin component 1
   -0.38216578
   -0.37574708
   -0.35410137
   -0.28848237
   -0.26970155
   -0.23810797
   -0.22259720
   -0.13846020
   -0.13277305
   -0.12305100
   -0.10357622
   -0.07681138
K-point   117  0.31250000  0.43750000  0.06250000  0.00781250
Spin component 1
   -0.25052106
   -0.21683218
   -0.20979126
   -0.17906642
   -0.17473508
   -0.17294796
   -0.13255803
   -0.11814619
   -0.11016480
   -0.10749835
   -0.09307473
   -0.08348253
K-point     6 -0.43750000 -0.31250000  0.43750000  0.00781250
Spin component 1
   -0.34724102
   -0.33754028
   -0.21240779
   -0.20178709
   -0.19980488
   -0.18934578
   -0.16498822
   -0.15424742
   -0.14212178
   -0.13169596
   -0.08469364
   -0.08359845
K-point    22 -0.43750000  0.43750000  0.06250000  0.00781250
Spin component 1
   -0.25250858
   -0.21432493
   -0.19691531
   -0.19025794
   -0.18435531
   -0.17014110
   -0.12729126
   -0.12024471
   -0.10886964
   -0.10711735
   -0.08986683
   -0.08678083
K-point    38 -0.31250000 -0.18750000 -0.06250000  0.00781250
Spin component 1
   -0.39560310
   -0.35190555
   -0.34948631
   -0.30372659
   -0.28547034
   -0.25069676
   -0.17283399
   -0.14858718
   -0.13243264
   -0.12559382
   -0.11273734
   -0.07672918
K-point    54 -0.18750000 -0.31250000 -0.31250000  0.00781250
Spin component 1
   -0.31783974
   -0.30047377
   -0.29981305
   -0.26245589
   -0.22856168
   -0.16927102
   -0.16893074
   -0.11744337
   -0.09921401
   -0.09571782
   -0.08494151
   -0.07802649
K-point    70 -0.18750000 -0.06250000 -0.31250000  0.00781250
Spin component 1
   -0.40976507
   -0.39151373
   -0.38978452
   -0.34845468
   -0.31384190
   -0.24514456
   -0.23938979
   -0.16889921
   -0.13442943
   -0.12729663
   -0.12180276
   -0.10618085
K-point    86  0.06250000 -0.43750000  0.06250000  0.00781250
Spin component 1
   -0.27095485
   -0.21896744
   -0.19647052
   -0.17471409
   -0.17444653
   -0.14832850
   -0.13925707
   -0.11956025
   -0.11680664
   -0.10771249
   -0.08182677
   -0.07535636
K-point   102  0.06250000 -0.06250000 -0.43750000  0.00781250
Spin component 1
   -0.41680778
   -0.40289192
   -0.38243957
   -0.33409416
   -0.27913327
   -0.27578067
   -0.23911855
   -0.17259305
   -0.15447642
   -0.13744084
   -0.11297414
   -0.09588496
K-point   118  0.31250000  0.43750000  0.18750000  0.00781250
Spin component 1
   -0.23681637
   -0.22968878
   -0.20970191
   -0.18963568
   -0.17333113
   -0.16463260
   -0.13217399
   -0.12031360
   -0.10868160
   -0.10636489
   -0.09566273
   -0.08716544
K-point     7 -0.43750000 -0.18750000 -0.43750000  0.00781250
Spin component 1
   -0.40958581
   -0.39151411
   -0.28664167
   -0.27167072
   -0.24745615
   -0.22470606
   -0.21204738
   -0.19622638
   -0.16488343
   -0.16239445
   -0.09189233
   -0.08223049
K-point    23 -0.31250000 -0.43750000 -0.43750000  0.00781250
Spin component 1
   -0.25587645
   -0.23733823
   -0.18918957
   -0.18308806
   -0.16246302
   -0.15792300
   -0.13925660
   -0.12466596
   -0.10943822
   -0.10598171
   -0.08854760
   -0.08423605
K-point    39 -0.31250000 -0.18750000  0.06250000  0.00781250
Spin component 1
   -0.41323251
   -0.33946808
   -0.32781510
   -0.31491790
   -0.29377571
   -0.19911778
   -0.16528783
   -0.16368701
   -0.15419728
   -0.14383845
   -0.13279515
   -0.07931084
K-point    55 -0.18750000 -0.31250000 -0.18750000  0.00781250
Spin component 1
   -0.32928643
   -0.30361989
   -0.29513305
   -0.23171232
   -0.21890094
   -0.21148054
   -0.15277066
   -0.10860332
   -0.10522454
   -0.09798967
   -0.09666696
   -0.07410251
K-point    71 -0.18750000 -0.06250000 -0.18750000  0.00781250
Spin component 1
   -0.42161028
   -0.39501448
   -0.38505595
   -0.31746595
   -0.29897896
   -0.29054934
   -0.22344748
   -0.15711262
   -0.15285858
   -0.14929017
   -0.12148555
   -0.08687197
K-point    87  0.06250000 -0.43750000  0.43750000  0.00781250
Spin component 1
   -0.23179262
   -0.22631628
   -0.21650065
   -0.20808388
   -0.15215090
   -0.14878227
   -0.14160290
   -0.13206317
   -0.10777699
   -0.10729999
   -0.09268633
   -0.08981317
K-point   103  0.06250000 -0.06250000 -0.31250000  0.00781250
Spin component 1
   -0.43129068
   -0.41678676
   -0.35473543
   -0.28825406
   -0.28249576
   -0.27882496
   -0.25012718
   -0.19213696
   -0.17326222
   -0.15772351
   -0.11202896
   -0.08029817
K-point   119  0.43750000 -0.43750000 -0.31250000  0.00781250
Spin component 1
   -0.26661527
   -0.23644417
   -0.17529043
   -0.17152480
   -0.16959778
   -0.16311670
   -0.13787770
   -0.13103108
   -0.10614260
   -0.09929917
   -0.08827048
   -0.08041158
K-point     8 -0.43750000 -0.18750000 -0.31250000  0.00781250
Spin component 1
   -0.40959679
   -0.36373342
   -0.31287600
   -0.29806768
   -0.29649197
   -0.19673290
   -0.18160546
   -0.17070858
   -0.16448316
   -0.14219342
   -0.10054924
   -0.09216513
K-point    24 -0.31250000 -0.43750000 -0.31250000  0.00781250
Spin component 1
   -0.25028264
   -0.21349593
   -0.20516689
   -0.20236182
   -0.16800200
   -0.16157705
   -0.13313270
   -0.12050048
   -0.10848533
   -0.10600895
   -0.09347461
   -0.08692287
K-point    40 -0.31250000 -0.18750000  0.18750000  0.00781250
Spin component 1
   -0.42032929
   -0.36211147
   -0.31884533
   -0.27437009
   -0.27002218
   -0.20851012
   -0.18039361
   -0.17227881
   -0.16707637
   -0.16263724
   -0.11445480
   -0.09446712
K-point    56 -0.18750000 -0.31250000 -0.06250000  0.00781250
Spin component 1
   -0.34932395
   -0.29718028
   -0.26391593
   -0.25170923
   -0.22577411
   -0.17298033
   -0.13317922
   -0.12834124
   -0.12405343
   -0.10904726
   -0.09949557
   -0.07903929
K-point    72 -0.18750000 -0.06250000 -0.06250000  0.00781250
Spin component 1
   -0.44307903
   -0.38795230
   -0.35053210
   -0.33671579
   -0.31061165
   -0.24489399
   -0.19485239
   -0.18352274
   -0.18278390
   -0.17213729
   -0.13299184
   -0.08284286
K-point    88  0.06250000 -0.31250000 -0.43750000  0.00781250
Spin component 1
   -0.32418918
   -0.31197242
   -0.29238150
   -0.24963187
   -0.19734439
   -0.19568373
   -0.16932468
   -0.11692391
   -0.11063160
   -0.09628498
   -0.08875530
   -0.07388522
K-point   104  0.06250000 -0.06250000 -0.18750000  0.00781250
Spin component 1
   -0.44925614
   -0.40610341
   -0.33064964
   -0.31762923
   -0.26948530
   -0.22900570
   -0.22840670
   -0.21686491
   -0.21528515
   -0.17141346
   -0.12081036
   -0.08553967
K-point   120  0.43750000 -0.31250000 -0.18750000  0.00781250
Spin component 1
   -0.35061481
   -0.28877028
   -0.26191679
   -0.25178892
   -0.24770049
   -0.14093844
   -0.13628250
   -0.13245473
   -0.12577240
   -0.11281892
   -0.09912397
   -0.08689091
K-point     9 -0.43750000 -0.18750000  0.06250000  0.00781250
Spin component 1
   -0.39856992
   -0.34709159
   -0.33305140
   -0.31777978
   -0.30675009
   -0.22988380
   -0.16878039
   -0.14672617
   -0.13355202
   -0.12470795
   -0.12123637
   -0.08008759
K-point    25 -0.31250000 -0.43750000  0.06250000  0.00781250
Spin component 1
   -0.26446935
   -0.20363601
   -0.20059821
   -0.19339880
   -0.17181151
   -0.16733012
   -0.13409839
   -0.11650501
   -0.10996642
   -0.10804137
   -0.08504091
   -0.08145719
K-point    41 -0.31250000 -0.18750000  0.31250000  0.00781250
Spin component 1
   -0.41676835
   -0.38638401
   -0.28920215
   -0.25180653
   -0.24616367
   -0.22026314
   -0.21028257
   -0.19998722
   -0.18369353
   -0.16541720
   -0.09345141
   -0.08396712
K-point    57 -0.18750000 -0.31250000  0.06250000  0.00781250
Spin component 1
   -0.35947321
   -0.28616712
   -0.28061758
   -0.22577689
   -0.21159861
   -0.16191731
   -0.14585847
   -0.13242211
   -0.12063437
   -0.11465026
   -0.10868733
   -0.09463800
K-point    73 -0.18750000 -0.06250000  0.06250000  0.00781250
Spin component 1
   -0.45389461
   -0.37509894
   -0.36970211
   -0.30719998
   -0.29399514
   -0.22965131
   -0.21455987
   -0.19759555
   -0.18347230
   -0.16701085
   -0.15669033
   -0.09975479
K-point    89  0.06250000 -0.31250000 -0.31250000  0.00781250
Spin component 1
   -0.33833232
   -0.32418668
   -0.26733800
   -0.20963498
   -0.20441164
   -0.19717621
   -0.17525315
   -0.13322163
   -0.11729632
   -0.10016019
   -0.09472672
   -0.07375212
K-point   105  0.06250000 -0.06250000 -0.06250000  0.00781250
Spin component 1
   -0.45648444
   -0.38502521
   -0.36473448
   -0.27270294
   -0.26595806
   -0.26036360
   -0.24975000
   -0.19057444
   -0.18225884
   -0.17397907
   -0.14948702
   -0.10426036
K-point   121  0.43750000 -0.18750000  0.18750000  0.00781250
Spin component 1
   -0.39901797
   -0.33990952
   -0.32983978
   -0.32638681
   -0.31406231
   -0.20836449
   -0.18803479
   -0.14283391
   -0.13480318
   -0.12455347
   -0.11802416
   -0.08463531
K-point    10 -0.43750000 -0.18750000  0.18750000  0.00781250
Spin component 1
   -0.41268463
   -0.34708738
   -0.31934371
   -0.30706663
   -0.30437136
   -0.18078770
   -0.17912219
   -0.16845354
   -0.15676317
   -0.14799132
   -0.11983609
   -0.08602973
K-point    26 -0.31250000 -0.43750000  0.18750000  0.00781250
Spin component 1
   -0.27022676
   -0.22425843
   -0.18957903
   -0.17295286
   -0.17229442
   -0.15693819
   -0.14025141
   -0.12257996
   -0.10955593
   -0.10554689
   -0.08180543
   -0.07875943
K-point    42 -0.31250000 -0.18750000  0.43750000  0.00781250
Spin component 1
   -0.40261048
   -0.40043750
   -0.28949778
   -0.25143321
   -0.24582185
   -0.23340912
   -0.21328412
   -0.20923798
   -0.17276370
   -0.15484461
   -0.09060101
   -0.07483252
K-point    58 -0.18750000 -0.31250000  0.18750000  0.00781250
Spin component 1
   -0.35947342
   -0.31129821
   -0.25644695
   -0.20004696
   -0.19049170
   -0.18344389
   -0.16380107
   -0.14469400
   -0.13196736
   -0.11573348
   -0.09551234
   -0.09384826
K-point    74 -0.18750000 -0.06250000  0.18750000  0.00781250
Spin component 1
   -0.45388976
   -0.40259758
   -0.34266097
   -0.27729260
   -0.26809258
   -0.25730973
   -0.23884557
   -0.20750637
   -0.19769459
   -0.18172239
   -0.12595210
   -0.09948019
K-point    90  0.06250000 -0.31250000 -0.18750000  0.00781250
Spin component 1
   -0.35514357
   -0.31433669
   -0.24608747
   -0.23455447
   -0.18943639
   -0.15970128
   -0.15882621
   -0.15096993
   -0.14912218
   -0.10844330
   -0.09357520
   -0.08308336
K-point   106  0.06250000 -0.06250000  0.06250000  0.00781250
Spin component 1
   -0.45287004
   -0.38945442
   -0.35354879
   -0.31355561
   -0.28260221
   -0.22327252
   -0.22240922
   -0.21209061
   -0.18909444
   -0.17312659
   -0.14072803
   -0.09226145
K-point   122  0.43750000 -0.06250000  0.06250000  0.00781250
Spin component 1
   -0.40948162
   -0.40516516
   -0.36717646
   -0.35154694
   -0.30972660
   -0.28752024
   -0.19690714
   -0.17124367
   -0.13971482
   -0.13332263
   -0.11753035
   -0.10441997
K-point    11 -0.43750000 -0.18750000  0.43750000  0.00781250
Spin component 1
   -0.40912684
   -0.39898415
   -0.26402800
   -0.25201538
   -0.25010932
   -0.23756434
   -0.20870116
   -0.19628463
   -0.18779886
   -0.17594941
   -0.08405927
   -0.08129583
K-point    27 -0.31250000 -0.43750000  0.31250000  0.00781250
Spin component 1
   -0.26735251
   -0.24221866
   -0.17342082
   -0.17176394
   -0.16204262
   -0.15379660
   -0.14428109
   -0.13254847
   -0.10739159
   -0.09972910
   -0.08438512
   -0.08204754
K-point    43 -0.31250000 -0.06250000 -0.43750000  0.00781250
Spin component 1
   -0.43576837
   -0.40937245
   -0.34928146
   -0.31377489
   -0.30313116
   -0.24260969
   -0.23332248
   -0.19502852
   -0.17691340
   -0.15970613
   -0.10801707
   -0.09890155
K-point    59 -0.18750000 -0.31250000  0.31250000  0.00781250
Spin component 1
   -0.34932071
   -0.32770364
   -0.23587127
   -0.22429818
   -0.17692758
   -0.17449462
   -0.17096903
   -0.16313865
   -0.14277143
   -0.11035168
   -0.08955934
   -0.07922216
K-point    75 -0.18750000 -0.06250000  0.31250000  0.00781250
Spin component 1
   -0.44306517
   -0.42036734
   -0.31938713
   -0.30579273
   -0.25500656
   -0.24576288
   -0.24480516
   -0.23368242
   -0.20638054
   -0.17337120
   -0.10757414
   -0.08238058
K-point    91  0.06250000 -0.31250000 -0.06250000  0.00781250
Spin component 1
   -0.36193222
   -0.29504064
   -0.27640099
   -0.19639596
   -0.19090232
   -0.18318440
   -0.17332111
   -0.12672782
   -0.12296200
   -0.11177938
   -0.10489771
   -0.10209345
K-point   107  0.06250000 -0.06250000  0.18750000  0.00781250
Spin component 1
   -0.43846507
   -0.40357022
   -0.35384330
   -0.31325341
   -0.29573580
   -0.26423762
   -0.22223996
   -0.18841999
   -0.17763381
   -0.16292343
   -0.11901877
   -0.07943406
K-point   123  0.43750000  0.18750000  0.06250000  0.00781250
Spin component 1
   -0.37815947
   -0.37398911
   -0.33643048
   -0.32109813
   -0.28084847
   -0.25933546
   -0.17203913
   -0.14821580
   -0.12151689
   -0.11629214
   -0.10075527
   -0.09020371
K-point    12 -0.43750000 -0.06250000  0.43750000  0.00781250
Spin component 1
   -0.44095459
   -0.43065727
   -0.29246603
   -0.28002761
   -0.27812184
   -0.26493727
   -0.23494202
   -0.22207500
   -0.21394725
   -0.20151998
   -0.09545878
   -0.09138263
K-point    28 -0.31250000 -0.43750000  0.43750000  0.00781250
Spin component 1
   -0.25606302
   -0.25310971
   -0.17343844
   -0.17133592
   -0.16323146
   -0.15232750
   -0.14496132
   -0.13292106
   -0.10859243
   -0.09745815
   -0.08867155
   -0.08441946
K-point    44 -0.31250000 -0.06250000 -0.31250000  0.00781250
Spin component 1
   -0.42861371
   -0.37450996
   -0.36986733
   -0.36060813
   -0.32335817
   -0.23605764
   -0.21198897
   -0.18672338
   -0.15548745
   -0.13522432
   -0.12425827
   -0.10197330
K-point    60 -0.18750000 -0.31250000  0.43750000  0.00781250
Spin component 1
   -0.33434939
   -0.32927339
   -0.26571523
   -0.21900258
   -0.19787527
   -0.18700228
   -0.18140863
   -0.13529891
   -0.11322287
   -0.10070121
   -0.09835547
   -0.07409594
K-point    76 -0.18750000 -0.06250000  0.43750000  0.00781250
Spin component 1
   -0.42753444
   -0.42158064
   -0.35320811
   -0.29911397
   -0.27727508
   -0.26244132
   -0.25995117
   -0.19437534
   -0.17204520
   -0.15692187
   -0.10988515
   -0.08661149
K-point    92  0.06250000 -0.31250000  0.06250000  0.00781250
Spin component 1
   -0.35853447
   -0.29884672
   -0.26656965
   -0.23116960
   -0.20122144
   -0.15730325
   -0.15240270
   -0.14531770
   -0.13018751
   -0.10978127
   -0.10244259
   -0.08860221
K-point   108  0.06250000 -0.06250000  0.31250000  0.00781250
Spin component 1
   -0.41349827
   -0.40713810
   -0.38499063
   -0.31760763
   -0.29898336
   -0.26538482
   -0.24994996
   -0.15995489
   -0.15241465
   -0.14434606
   -0.11721990
   -0.08918680
K-point   124  0.43750000  0.31250000 -0.06250000  0.00781250
Spin component 1
   -0.33719780
   -0.28875199
   -0.27440172
   -0.25992866
   -0.25159787
   -0.18322537
   -0.12767951
   -0.11374217
   -0.10951616
   -0.10388616
   -0.09607128
   -0.07935681
K-point    13 -0.43750000  0.06250000 -0.43750000  0.00781250
Spin component 1
   -0.44144234
   -0.42303519
   -0.31594770
   -0.30048065
   -0.27528096
   -0.25142127
   -0.23816218
   -0.22291664
   -0.18930587
   -0.18682817
   -0.10264222
   -0.09449126
K-point    29 -0.31250000 -0.31250000 -0.43750000  0.00781250
Spin component 1
   -0.34216996
   -0.31792389
   -0.26188564
   -0.23177658
   -0.22012657
   -0.16570588
   -0.16461025
   -0.13611755
   -0.11535409
   -0.10354046
   -0.10000313
   -0.07728751
K-point    45 -0.31250000 -0.06250000 -0.18750000  0.00781250
Spin component 1
   -0.41084809
   -0.39875919
   -0.38052256
   -0.33423347
   -0.32955337
   -0.26396440
   -0.22059518
   -0.15377914
   -0.14844093
   -0.13044271
   -0.11923246
   -0.10458966
K-point    61 -0.18750000 -0.18750000 -0.43750000  0.00781250
Spin component 1
   -0.39235580
   -0.35896410
   -0.34659585
   -0.31853274
   -0.27124537
   -0.22996968
   -0.18797093
   -0.16689278
   -0.13564602
   -0.11489099
   -0.09604897
   -0.09100609
K-point    77 -0.18750000  0.43750000 -0.18750000  0.00781250
Spin component 1
   -0.24653878
   -0.22153761
   -0.21757584
   -0.18000105
   -0.16788661
   -0.16114423
   -0.13822124
   -0.12167560
   -0.11142725
   -0.10485284
   -0.09588559
   -0.08254178
K-point    93  0.06250000 -0.31250000  0.18750000  0.00781250
Spin component 1
   -0.34502975
   -0.31176071
   -0.26673545
   -0.23103020
   -0.21225599
   -0.18911379
   -0.15321814
   -0.13016783
   -0.12202019
   -0.10297781
   -0.09461544
   -0.07562359
K-point   109  0.06250000 -0.06250000  0.43750000  0.00781250
Spin component 1
   -0.40617261
   -0.40007933
   -0.37835783
   -0.36454689
   -0.29229764
   -0.26925123
   -0.21455351
   -0.19052546
   -0.12771993
   -0.12476370
   -0.11863845
   -0.11059278
K-point   125  0.43750000  0.31250000  0.06250000  0.00781250
Spin component 1
   -0.31779296
   -0.31401428
   -0.27750124
   -0.26300154
   -0.22820300
   -0.20896562
   -0.13122346
   -0.11313583
   -0.10128014
   -0.09948954
   -0.08551635
   -0.08121112
K-point    14 -0.43750000  0.06250000 -0.31250000  0.00781250
Spin component 1
   -0.44145636
   -0.39472012
   -0.34299079
   -0.32738860
   -0.32630781
   -0.22341869
   -0.20559301
   -0.19405361
   -0.18882989
   -0.16480598
   -0.11683794
   -0.10336147
K-point    30 -0.31250000 -0.31250000 -0.31250000  0.00781250
Spin component 1
   -0.33548641
   -0.28585544
   -0.28045999
   -0.27331328
   -0.23756802
   -0.16047943
   -0.14705778
   -0.13061179
   -0.11157241
   -0.09310895
   -0.08968928
   -0.08165507
K-point    46 -0.31250000 -0.06250000 -0.06250000  0.00781250
Spin component 1
   -0.42719298
   -0.38264033
   -0.38049288
   -0.33381767
   -0.31447479
   -0.27861787
   -0.19746632
   -0.17188670
   -0.15223447
   -0.14560276
   -0.12913410
   -0.08796080
K-point    62 -0.18750000 -0.18750000 -0.31250000  0.00781250
Spin component 1
   -0.37840246
   -0.36038421
   -0.35890335
   -0.31851497
   -0.28423218
   -0.21782370
   -0.21315534
   -0.14727891
   -0.11527736
   -0.11160523
   -0.10469132
   -0.09094634
K-point    78 -0.18750000  0.43750000  0.06250000  0.00781250
Spin component 1
   -0.27167799
   -0.21109399
   -0.20431559
   -0.17409733
   -0.17368507
   -0.14998747
   -0.14258520
   -0.11627030
   -0.11315922
   -0.11085959
   -0.07931701
   -0.07719670
K-point    94  0.06250000 -0.31250000  0.43750000  0.00781250
Spin component 1
   -0.31434124
   -0.30850439
   -0.28948777
   -0.27695009
   -0.20936208
   -0.18929505
   -0.14991479
   -0.13224272
   -0.09785876
   -0.09636586
   -0.08067922
   -0.07825593
K-point   110  0.06250000  0.43750000  0.31250000  0.00781250
Spin component 1
   -0.24066502
   -0.23155561
   -0.21661265
   -0.18587312
   -0.15820739
   -0.15039218
   -0.14209823
   -0.12886915
   -0.11221520
   -0.10525326
   -0.09418855
   -0.08387009
K-point   126  0.43750000  0.43750000 -0.18750000  0.00781250
Spin component 1
   -0.26373673
   -0.21452110
   -0.19040313
   -0.18797459
   -0.17604078
   -0.16934368
   -0.12998250
   -0.12284928
   -0.10875765
   -0.10338852
   -0.08712411
   -0.08256715
K-point    15 -0.43750000  0.06250000 -0.18750000  0.00781250
Spin component 1
   -0.43069976
   -0.37037965
   -0.36044655
   -0.35650031
   -0.34432581
   -0.23450471
   -0.21413193
   -0.16352946
   -0.15457065
   -0.14466385
   -0.13783473
   -0.09633693
K-point    31 -0.31250000 -0.31250000 -0.18750000  0.00781250
Spin component 1
   -0.31897957
   -0.30813466
   -0.28999812
   -0.24784722
   -0.24481143
   -0.18920703
   -0.14914722
   -0.10707628
   -0.10151250
   -0.09896558
   -0.08687833
   -0.07933923
K-point    47 -0.31250000 -0.06250000  0.06250000  0.00781250
Spin component 1
   -0.44511807
   -0.37015892
   -0.35803660
   -0.34481884
   -0.32354817
   -0.22502581
   -0.18878158
   -0.18773469
   -0.17744586
   -0.16557258
   -0.15252009
   -0.08904499
K-point    63 -0.18750000 -0.18750000 -0.18750000  0.00781250
Spin component 1
   -0.39012688
   -0.36381483
   -0.35419322
   -0.28774335
   -0.27042387
   -0.26227305
   -0.19733962
   -0.13533789
   -0.13279285
   -0.12855985
   -0.10676224
   -0.07533996
K-point    79 -0.06250000 -0.43750000 -0.18750000  0.00781250
Spin component 1
   -0.25956361
   -0.22901192
   -0.19621455
   -0.17609609
   -0.17414516
   -0.14931592
   -0.14158464
   -0.12301090
   -0.11589898
   -0.10167926
   -0.09255849
   -0.07813680
K-point    95  0.06250000 -0.18750000 -0.43750000  0.00781250
Spin component 1
   -0.38527985
   -0.37175629
   -0.35156332
   -0.30451193
   -0.25042837
   -0.24743397
   -0.21304239
   -0.15000248
   -0.13463781
   -0.11711664
   -0.10002958
   -0.08201069
K-point   111  0.18750000 -0.43750000  0.06250000  0.00781250
Spin component 1
   -0.26306611
   -0.21659951
   -0.19544573
   -0.18802918
   -0.17369677
   -0.15760629
   -0.13880459
   -0.11681355
   -0.11242608
   -0.10695956
   -0.08862112
   -0.07850008
K-point   127  0.43750000  0.43750000  0.18750000  0.00781250
Spin component 1
   -0.25243819
   -0.21032268
   -0.20226609
   -0.19418597
   -0.18248853
   -0.16593040
   -0.12640628
   -0.12277009
   -0.10739650
   -0.10530571
   -0.09201475
   -0.08739644
K-point    16 -0.43750000  0.06250000  0.06250000  0.00781250
Spin component 1
   -0.43022547
   -0.37773490
   -0.36371053
   -0.34815471
   -0.33638285
   -0.25699110
   -0.19367033
   -0.16927024
   -0.15316661
   -0.14276624
   -0.14147689
   -0.09141805
K-point    32 -0.31250000 -0.31250000  0.06250000  0.00781250
Spin component 1
   -0.35118935
   -0.28076661
   -0.27078979
   -0.25890544
   -0.23768301
   -0.15662452
   -0.13188312
   -0.12358559
   -0.11875375
   -0.11285680
   -0.10792987
   -0.08329903
K-point    48 -0.31250000 -0.06250000  0.18750000  0.00781250
Spin component 1
   -0.45232622
   -0.39309688
   -0.34901597
   -0.30344512
   -0.29861841
   -0.23435095
   -0.20562467
   -0.19654154
   -0.19120001
   -0.18766115
   -0.13256227
   -0.10482075
K-point    64 -0.18750000 -0.18750000 -0.06250000  0.00781250
Spin component 1
   -0.41123560
   -0.35690724
   -0.32047326
   -0.30704010
   -0.28111765
   -0.21817535
   -0.17067110
   -0.16109815
   -0.15932478
   -0.14839186
   -0.11600892
   -0.07362426
K-point    80 -0.06250000 -0.43750000  0.31250000  0.00781250
Spin component 1
   -0.25402945
   -0.23982855
   -0.19549244
   -0.17748484
   -0.16257365
   -0.15123717
   -0.13404651
   -0.13162299
   -0.11832141
   -0.10109079
   -0.09203019
   -0.08015577
K-point    96  0.06250000 -0.18750000 -0.31250000  0.00781250
Spin component 1
   -0.39964839
   -0.38526355
   -0.32450893
   -0.26010218
   -0.25438806
   -0.25017564
   -0.22296309
   -0.16865467
   -0.15057039
   -0.13528051
   -0.09914470
   -0.07041511
K-point   112  0.18750000 -0.43750000  0.31250000  0.00781250
Spin component 1
   -0.23530137
   -0.22384271
   -0.21887926
   -0.19895326
   -0.15993564
   -0.15784643
   -0.13819961
   -0.12333525
   -0.10800665
   -0.10690775
   -0.09557268
   -0.08780641
K-point   128  0.43750000  0.43750000  0.43750000  0.00781250
Spin component 1
   -0.26088555
   -0.24712593
   -0.17285578
   -0.16796959
   -0.16667218
   -0.15866094
   -0.14107820
   -0.13554342
   -0.10252686
   -0.09900946
   -0.09019363
   -0.08383758
