Number of k-points    64
Number of spin components 1
Number of electrons  48.00    
Number of eigenvalues     24
Fermi energy (in atomic units)    -0.003495
Unit cell vectors
    6.868947   -0.000000    0.000000
   -0.000000   11.932318    0.000000
    0.000000    0.000000   11.767990
K-point     1 -0.42857143 -0.14285714 -0.28571429  0.02332362
Spin component 1
   -0.40059712
   -0.34909605
   -0.34886182
   -0.31275991
   -0.29568302
   -0.26369896
   -0.26025808
   -0.23779368
   -0.21913991
   -0.21411817
   -0.19592061
   -0.18834045
   -0.17109895
   -0.15263298
   -0.14674957
   -0.12710345
   -0.10570089
   -0.08413737
   -0.05439442
   -0.04452573
   -0.04375090
   -0.03017482
   -0.02769329
   -0.02182061
K-point     5 -0.42857143  0.00000000  0.14285714  0.01166181
Spin component 1
   -0.41069346
   -0.35824387
   -0.32573178
   -0.29320501
   -0.28664005
   -0.26722377
   -0.25669962
   -0.24353388
   -0.22529560
   -0.21506159
   -0.20190035
   -0.20030670
   -0.16485229
   -0.15872009
   -0.15053019
   -0.15043310
   -0.12314381
   -0.11078385
   -0.04875604
   -0.02940556
   -0.02647684
   -0.01838058
   -0.01186000
   -0.00971117
K-point     9 -0.28571429 -0.14285714 -0.28571429  0.02332362
Spin component 1
   -0.43914791
   -0.38639332
   -0.35154691
   -0.30267107
   -0.28596928
   -0.27013982
   -0.25165203
   -0.23430259
   -0.22191097
   -0.19643464
   -0.17394841
   -0.15787874
   -0.14148175
   -0.13056339
   -0.12978521
   -0.12066353
   -0.10289126
   -0.06133787
   -0.05261418
   -0.05160290
   -0.04463535
   -0.02363817
   -0.02113538
   -0.01316288
K-point    13 -0.14285714  0.14285714  0.00000000  0.01166181
Spin component 1
   -0.47290688
   -0.38368310
   -0.36107648
   -0.33588963
   -0.31288381
   -0.27430449
   -0.25209107
   -0.21710186
   -0.19651949
   -0.18999996
   -0.13588236
   -0.12022327
   -0.11620107
   -0.11514102
   -0.09845308
   -0.07195786
   -0.06511058
   -0.05422989
   -0.05234536
   -0.04415797
   -0.04050463
   -0.03394739
   -0.01599140
   -0.01103178
K-point    17 -0.14285714  0.28571429  0.00000000  0.01166181
Spin component 1
   -0.46511053
   -0.41116043
   -0.35365677
   -0.32849580
   -0.30426780
   -0.27776431
   -0.26792719
   -0.20208340
   -0.16928299
   -0.15900256
   -0.15470076
   -0.13026892
   -0.11688377
   -0.11552655
   -0.10970412
   -0.08205556
   -0.07014407
   -0.06640646
   -0.05359191
   -0.04791854
   -0.04461854
   -0.03804074
   -0.01348066
   -0.00636161
K-point    21 -0.14285714  0.42857143  0.00000000  0.01166181
Spin component 1
   -0.45215930
   -0.43412680
   -0.34139271
   -0.32453128
   -0.31624234
   -0.29926582
   -0.22548363
   -0.18881629
   -0.18363437
   -0.16864630
   -0.13579067
   -0.12297314
   -0.11711370
   -0.11173371
   -0.10113730
   -0.09642045
   -0.09406511
   -0.08613327
   -0.05418886
   -0.05384287
   -0.03788018
   -0.03609009
   -0.01219425
   -0.00770036
K-point    25  0.00000000 -0.42857143  0.00000000  0.00583090
Spin component 1
   -0.45997841
   -0.44189760
   -0.34878542
   -0.33181631
   -0.32364095
   -0.30656886
   -0.23099833
   -0.18408144
   -0.14498287
   -0.12672353
   -0.12243839
   -0.11926328
   -0.11306501
   -0.09693446
   -0.08641692
   -0.08010017
   -0.07984297
   -0.07468350
   -0.07254012
   -0.06610274
   -0.05309452
   -0.04611136
   -0.00706901
   -0.00549614
K-point    29  0.00000000 -0.28571429  0.00000000  0.00583090
Spin component 1
   -0.47296138
   -0.41886160
   -0.36111970
   -0.33594906
   -0.31150837
   -0.28492848
   -0.27433638
   -0.18005212
   -0.16135182
   -0.13761648
   -0.13105167
   -0.11709450
   -0.09770133
   -0.09493707
   -0.08429033
   -0.07335367
   -0.07109475
   -0.06345220
   -0.06220954
   -0.05502995
   -0.05124096
   -0.03933701
   -0.01544379
   -0.00953786
K-point    33  0.00000000 -0.14285714  0.00000000  0.00583090
Spin component 1
   -0.48077499
   -0.39128101
   -0.36858035
   -0.34337627
   -0.32025878
   -0.28072777
   -0.25905035
   -0.21548735
   -0.19606393
   -0.13683636
   -0.12191577
   -0.10292823
   -0.09260400
   -0.08869756
   -0.07798844
   -0.06577565
   -0.06422888
   -0.05908901
   -0.05317051
   -0.04018644
   -0.04004435
   -0.03522862
   -0.03017768
   -0.01618949
K-point    37  0.00000000  0.00000000  0.00000000  0.00291545
Spin component 1
   -0.48338407
   -0.37107518
   -0.36624118
   -0.34869789
   -0.34585708
   -0.25904252
   -0.24169417
   -0.23225759
   -0.22595725
   -0.13882238
   -0.12264743
   -0.10476462
   -0.09024411
   -0.07491560
   -0.06714263
   -0.05964046
   -0.05825913
   -0.05539429
   -0.04957199
   -0.04856821
   -0.03578087
   -0.03556276
   -0.03427093
   -0.01991258
K-point    41  0.14285714  0.00000000  0.00000000  0.00583090
Spin component 1
   -0.47550830
   -0.36355830
   -0.35880088
   -0.34117586
   -0.33836178
   -0.25207426
   -0.23911951
   -0.22547131
   -0.21951014
   -0.20350351
   -0.12383460
   -0.12144431
   -0.11702681
   -0.10965082
   -0.10531937
   -0.06782491
   -0.05536261
   -0.05079890
   -0.04501800
   -0.04430333
   -0.04111375
   -0.02683223
   -0.02152566
   -0.01693426
K-point    45  0.28571429 -0.28571429  0.00000000  0.01166181
Spin component 1
   -0.44167823
   -0.38833581
   -0.33164378
   -0.30633919
   -0.28876250
   -0.27572523
   -0.25655079
   -0.24368875
   -0.22966103
   -0.17923629
   -0.16468535
   -0.15101294
   -0.14583871
   -0.14009634
   -0.12513812
   -0.12411145
   -0.08877439
   -0.07976653
   -0.07874737
   -0.05534116
   -0.03514620
   -0.02164288
   -0.00553418
   -0.00540053
K-point    49  0.28571429 -0.14285714  0.00000000  0.01166181
Spin component 1
   -0.44940773
   -0.36140052
   -0.33885028
   -0.31362267
   -0.29517034
   -0.28496607
   -0.25038234
   -0.23156961
   -0.20520212
   -0.19145190
   -0.17828013
   -0.17208504
   -0.17076748
   -0.14614066
   -0.12521835
   -0.10827343
   -0.08720595
   -0.08008022
   -0.06225984
   -0.05320080
   -0.02254348
   -0.01323047
   -0.00680565
   -0.00661378
K-point    53  0.28571429  0.00000000  0.00000000  0.00583090
Spin component 1
   -0.45198957
   -0.34126751
   -0.33782492
   -0.31892386
   -0.31605971
   -0.28936570
   -0.23339611
   -0.21011877
   -0.20551165
   -0.20100897
   -0.18396146
   -0.18321981
   -0.17284896
   -0.16788652
   -0.11778570
   -0.09569585
   -0.09220745
   -0.08778721
   -0.05400056
   -0.04331151
   -0.01371336
   -0.01365093
   -0.01134577
   -0.00832337
K-point    57  0.42857143 -0.42857143  0.00000000  0.01166181
Spin component 1
   -0.39079726
   -0.37412305
   -0.33466714
   -0.31925070
   -0.28075615
   -0.26662339
   -0.25846890
   -0.24240685
   -0.22936390
   -0.21467041
   -0.21026326
   -0.19546861
   -0.16781556
   -0.13982627
   -0.10335018
   -0.09975277
   -0.09202242
   -0.09145116
   -0.07939479
   -0.06638881
   -0.06481594
   -0.04350219
   -0.01627623
   -0.01496670
K-point    61  0.42857143 -0.28571429  0.00000000  0.01166181
Spin component 1
   -0.40318127
   -0.35827973
   -0.34033591
   -0.30380019
   -0.28609274
   -0.27017143
   -0.25292610
   -0.23823103
   -0.22340986
   -0.22034541
   -0.20417417
   -0.19695885
   -0.17644424
   -0.16231310
   -0.12275547
   -0.11921285
   -0.09636858
   -0.09121084
   -0.07608069
   -0.05036242
   -0.04805077
   -0.02687829
   -0.01571246
   -0.01049980
K-point     2 -0.42857143  0.00000000 -0.42857143  0.01166181
Spin component 1
   -0.39054583
   -0.37316269
   -0.33870193
   -0.32206981
   -0.27564224
   -0.26649349
   -0.24872696
   -0.24067522
   -0.22614267
   -0.21692743
   -0.20528561
   -0.19493344
   -0.17670821
   -0.14527669
   -0.14302889
   -0.12573753
   -0.09226664
   -0.06684046
   -0.06112745
   -0.05106592
   -0.03551250
   -0.03253640
   -0.03185645
   -0.03150287
K-point     6 -0.42857143  0.14285714  0.00000000  0.01166181
Spin component 1
   -0.41070826
   -0.35891435
   -0.32048181
   -0.30389398
   -0.27725476
   -0.26736310
   -0.26013996
   -0.24657994
   -0.22838094
   -0.20950220
   -0.20410092
   -0.19787872
   -0.16791271
   -0.15611361
   -0.15362734
   -0.14463370
   -0.11752674
   -0.11183202
   -0.04754876
   -0.04218837
   -0.02539819
   -0.02036822
   -0.01046859
   -0.00598222
K-point    10 -0.28571429  0.42857143 -0.14285714  0.02332362
Spin component 1
   -0.42629053
   -0.40846476
   -0.34053956
   -0.32373862
   -0.27067728
   -0.26700485
   -0.25201836
   -0.24760512
   -0.20408642
   -0.18470871
   -0.17694153
   -0.15371482
   -0.13721759
   -0.13440208
   -0.12712313
   -0.10264697
   -0.09847751
   -0.08333212
   -0.06925026
   -0.05486281
   -0.05197675
   -0.04007354
   -0.01043316
   -0.00787978
K-point    14 -0.14285714  0.14285714  0.42857143  0.02332362
Spin component 1
   -0.44972898
   -0.43190733
   -0.36139318
   -0.34448431
   -0.28877700
   -0.27284103
   -0.23160346
   -0.19133337
   -0.18866716
   -0.17502180
   -0.15792861
   -0.13604268
   -0.11792345
   -0.10706490
   -0.08548229
   -0.08165982
   -0.07851248
   -0.06481850
   -0.05617565
   -0.05107705
   -0.04398117
   -0.04311558
   -0.02101189
   -0.01668053
K-point    18 -0.14285714  0.28571429  0.42857143  0.02332362
Spin component 1
   -0.44198696
   -0.42421242
   -0.38850115
   -0.37114383
   -0.24949763
   -0.23404840
   -0.22512336
   -0.18714612
   -0.18546238
   -0.17540637
   -0.16639422
   -0.14492913
   -0.13912945
   -0.12827797
   -0.11182432
   -0.10298342
   -0.06585840
   -0.05319693
   -0.04754522
   -0.04613376
   -0.04086756
   -0.03696920
   -0.02467842
   -0.01790501
K-point    22  0.00000000 -0.42857143 -0.42857143  0.01166181
Spin component 1
   -0.43689150
   -0.41914866
   -0.41895166
   -0.40133262
   -0.22098598
   -0.21546844
   -0.20298824
   -0.19653359
   -0.18249288
   -0.16593959
   -0.16463519
   -0.15097554
   -0.10809844
   -0.09942471
   -0.09653212
   -0.08918731
   -0.07474604
   -0.06808150
   -0.06536542
   -0.05904848
   -0.04402953
   -0.02869929
   -0.02717360
   -0.01771788
K-point    26  0.00000000 -0.28571429 -0.42857143  0.01166181
Spin component 1
   -0.44978298
   -0.43196112
   -0.39613020
   -0.37871031
   -0.25602124
   -0.24021169
   -0.23162459
   -0.19116930
   -0.18612774
   -0.15218455
   -0.12044408
   -0.11743747
   -0.10925899
   -0.10813944
   -0.08687234
   -0.08376673
   -0.07578066
   -0.07261594
   -0.06410675
   -0.05498713
   -0.04936996
   -0.04323594
   -0.02231369
   -0.01739289
K-point    30  0.00000000 -0.14285714 -0.42857143  0.01166181
Spin component 1
   -0.45754622
   -0.43967901
   -0.36891685
   -0.35194976
   -0.29572722
   -0.27959583
   -0.23823450
   -0.19711705
   -0.16598094
   -0.14116042
   -0.12434649
   -0.11409696
   -0.09094264
   -0.08460123
   -0.07986198
   -0.07980762
   -0.07331197
   -0.06874206
   -0.06284984
   -0.06208255
   -0.04624623
   -0.04231838
   -0.02698654
   -0.02644234
K-point    34  0.00000000  0.00000000 -0.42857143  0.00583090
Spin component 1
   -0.46013668
   -0.44225521
   -0.34467336
   -0.33316153
   -0.31896402
   -0.30795064
   -0.24046282
   -0.19914990
   -0.14798378
   -0.14613449
   -0.12689444
   -0.11593742
   -0.09236657
   -0.08457071
   -0.08215437
   -0.07422072
   -0.06716362
   -0.06449610
   -0.04873688
   -0.04674524
   -0.04285512
   -0.04137339
   -0.03984877
   -0.03971329
K-point    38  0.14285714  0.00000000 -0.42857143  0.01166181
Spin component 1
   -0.45231409
   -0.43447797
   -0.33724285
   -0.32562714
   -0.31195133
   -0.30099805
   -0.23378984
   -0.19327435
   -0.19051175
   -0.17665670
   -0.14177403
   -0.14079329
   -0.10044337
   -0.09535390
   -0.08691182
   -0.08532876
   -0.08442616
   -0.07296150
   -0.04894790
   -0.04572621
   -0.04548729
   -0.04511282
   -0.02141756
   -0.01912371
K-point    42  0.14285714  0.42857143 -0.42857143  0.02332362
Spin component 1
   -0.42913099
   -0.41143845
   -0.41124502
   -0.39368252
   -0.21471496
   -0.20894342
   -0.19855998
   -0.19278392
   -0.17748775
   -0.17043691
   -0.16496110
   -0.16147994
   -0.15684465
   -0.14942183
   -0.14245069
   -0.13488459
   -0.04825743
   -0.04489670
   -0.04137478
   -0.03990727
   -0.03737604
   -0.03327074
   -0.03000425
   -0.02298256
K-point    46  0.28571429 -0.28571429  0.14285714  0.02332362
Spin component 1
   -0.43911355
   -0.38582717
   -0.35275598
   -0.30324481
   -0.28168155
   -0.27825114
   -0.24574756
   -0.23068350
   -0.22719972
   -0.19784158
   -0.16984934
   -0.15825580
   -0.14461638
   -0.12439180
   -0.12262061
   -0.11905264
   -0.08755034
   -0.08480692
   -0.07497512
   -0.05730082
   -0.04012513
   -0.02323643
   -0.01037462
   -0.00732862
K-point    50  0.28571429  0.00000000 -0.42857143  0.01166181
Spin component 1
   -0.42896397
   -0.41127393
   -0.31603606
   -0.30321176
   -0.29371641
   -0.28550181
   -0.25913463
   -0.24714328
   -0.21465175
   -0.17778421
   -0.16471940
   -0.15708159
   -0.14203014
   -0.13411369
   -0.12893102
   -0.12672585
   -0.10064992
   -0.06960609
   -0.04400007
   -0.04335190
   -0.03283949
   -0.03193599
   -0.02970693
   -0.02228403
K-point    54  0.28571429  0.14285714  0.42857143  0.02332362
Spin component 1
   -0.42640242
   -0.40873067
   -0.33938132
   -0.32273938
   -0.27521224
   -0.26585694
   -0.24861695
   -0.24018572
   -0.21313206
   -0.18677477
   -0.17705533
   -0.16633573
   -0.14377105
   -0.12673160
   -0.12527001
   -0.11521652
   -0.09234285
   -0.06736906
   -0.05706075
   -0.05387770
   -0.03526742
   -0.03190942
   -0.02967532
   -0.02190030
K-point    58  0.42857143 -0.42857143  0.14285714  0.02332362
Spin component 1
   -0.38828968
   -0.37164157
   -0.33247496
   -0.31853073
   -0.29981685
   -0.28627006
   -0.25013306
   -0.23789337
   -0.23071479
   -0.21868491
   -0.18903041
   -0.17472627
   -0.16502177
   -0.13816550
   -0.11098942
   -0.10190644
   -0.09521301
   -0.08448896
   -0.07856984
   -0.06879414
   -0.06814479
   -0.04789349
   -0.02418524
   -0.02147118
K-point    62  0.42857143 -0.28571429  0.42857143  0.02332362
Spin component 1
   -0.38062487
   -0.36338392
   -0.33667886
   -0.32474052
   -0.31166035
   -0.30034716
   -0.27397612
   -0.25802546
   -0.19247651
   -0.17847188
   -0.17495307
   -0.14975271
   -0.14430312
   -0.14089220
   -0.14010224
   -0.13438807
   -0.08533277
   -0.07267383
   -0.07191061
   -0.06911581
   -0.06545541
   -0.05084127
   -0.04830926
   -0.04716003
K-point     3 -0.42857143  0.00000000 -0.28571429  0.01166181
Spin component 1
   -0.40310699
   -0.35126382
   -0.35086402
   -0.30204689
   -0.28636465
   -0.27067133
   -0.23700027
   -0.23446188
   -0.22793299
   -0.22217428
   -0.21397145
   -0.18506484
   -0.17783993
   -0.17300375
   -0.13100984
   -0.12378077
   -0.12092479
   -0.08442746
   -0.05307270
   -0.04353598
   -0.03184258
   -0.02428133
   -0.02303878
   -0.01906633
K-point     7 -0.42857143  0.28571429  0.14285714  0.02332362
Spin component 1
   -0.40065642
   -0.35581829
   -0.33801185
   -0.31749507
   -0.29129658
   -0.27141721
   -0.25686614
   -0.24576567
   -0.21481093
   -0.21079981
   -0.20189462
   -0.19050194
   -0.16473068
   -0.15395203
   -0.14096904
   -0.10772512
   -0.10259340
   -0.08467572
   -0.07498374
   -0.05463868
   -0.04811546
   -0.03084627
   -0.02373132
   -0.01599171
K-point    11 -0.14285714  0.14285714 -0.28571429  0.02332362
Spin component 1
   -0.46257240
   -0.40935191
   -0.37371708
   -0.32406116
   -0.29937462
   -0.27221208
   -0.25283659
   -0.20185910
   -0.18953150
   -0.15681018
   -0.15513819
   -0.14244440
   -0.12587381
   -0.09734033
   -0.08943561
   -0.08773439
   -0.07086170
   -0.06091552
   -0.05278820
   -0.04600095
   -0.04232554
   -0.03133070
   -0.02879145
   -0.01527490
K-point    15 -0.14285714  0.28571429 -0.28571429  0.02332362
Spin component 1
   -0.45479982
   -0.40172362
   -0.40104729
   -0.34929889
   -0.26527679
   -0.26093544
   -0.21856687
   -0.21510615
   -0.18800414
   -0.15447946
   -0.15082381
   -0.14483579
   -0.12756466
   -0.12471690
   -0.10760121
   -0.09168891
   -0.08439771
   -0.05450604
   -0.05014344
   -0.04509411
   -0.03971906
   -0.03522943
   -0.02219912
   -0.01462554
K-point    19 -0.14285714  0.42857143 -0.28571429  0.02332362
Spin component 1
   -0.44188947
   -0.42391960
   -0.38907036
   -0.37150607
   -0.25391439
   -0.23900287
   -0.21613888
   -0.18364050
   -0.17574065
   -0.16856982
   -0.16153118
   -0.14478531
   -0.14290195
   -0.13034040
   -0.12658089
   -0.11910977
   -0.06799262
   -0.05195119
   -0.04919136
   -0.04478682
   -0.03814980
   -0.03629558
   -0.01888817
   -0.01596724
K-point    23  0.00000000 -0.42857143 -0.28571429  0.01166181
Spin component 1
   -0.44968370
   -0.43166368
   -0.39670698
   -0.37907406
   -0.26075662
   -0.24579310
   -0.22116464
   -0.17929890
   -0.17594697
   -0.14863222
   -0.13535611
   -0.13289623
   -0.11504822
   -0.10231433
   -0.09086063
   -0.08513333
   -0.07658795
   -0.07053694
   -0.06324056
   -0.06120484
   -0.05230315
   -0.04343535
   -0.01502902
   -0.01110514
K-point    27  0.00000000 -0.28571429 -0.28571429  0.01166181
Spin component 1
   -0.46262732
   -0.40940482
   -0.40871745
   -0.35677512
   -0.27225262
   -0.26764475
   -0.22478917
   -0.21890833
   -0.15506502
   -0.13223570
   -0.12864737
   -0.12620219
   -0.09844375
   -0.09758775
   -0.09231645
   -0.08626428
   -0.07834409
   -0.07026730
   -0.06549414
   -0.05947899
   -0.04434054
   -0.03065597
   -0.02573856
   -0.01542160
K-point    31  0.00000000 -0.14285714 -0.28571429  0.01166181
Spin component 1
   -0.47041841
   -0.41705786
   -0.38128269
   -0.33149134
   -0.30634971
   -0.27926208
   -0.25915336
   -0.20012123
   -0.15970325
   -0.14863124
   -0.13124707
   -0.10204928
   -0.09725785
   -0.08805776
   -0.07803346
   -0.07667126
   -0.07161691
   -0.06587658
   -0.05579616
   -0.05001824
   -0.03988457
   -0.03868531
   -0.02929916
   -0.02746053
K-point    35  0.00000000  0.00000000 -0.28571429  0.00583090
Spin component 1
   -0.47302023
   -0.41961458
   -0.35645446
   -0.33966600
   -0.30293939
   -0.28762660
   -0.28161408
   -0.17674585
   -0.17174136
   -0.16141406
   -0.13282382
   -0.10333723
   -0.09893065
   -0.07736678
   -0.07173408
   -0.06965909
   -0.06286322
   -0.05040543
   -0.04987815
   -0.04735207
   -0.04534139
   -0.03950728
   -0.03774464
   -0.03690173
K-point    39  0.14285714  0.00000000 -0.28571429  0.01166181
Spin component 1
   -0.46516719
   -0.41189986
   -0.34902664
   -0.33218381
   -0.29582660
   -0.28104185
   -0.27453844
   -0.20137397
   -0.17159665
   -0.16381123
   -0.15737817
   -0.15652898
   -0.10783995
   -0.10013875
   -0.08897280
   -0.07682647
   -0.07536496
   -0.05192333
   -0.04929475
   -0.04299928
   -0.04186473
   -0.03977915
   -0.02693098
   -0.01929253
K-point    43  0.28571429 -0.42857143 -0.28571429  0.02332362
Spin component 1
   -0.41865704
   -0.40088534
   -0.36639743
   -0.34913272
   -0.25963905
   -0.24485871
   -0.23057077
   -0.21911103
   -0.21385836
   -0.19743275
   -0.18863270
   -0.15307238
   -0.14957590
   -0.13053825
   -0.12716934
   -0.11544663
   -0.08471804
   -0.07309573
   -0.06567288
   -0.05697726
   -0.05452892
   -0.04188241
   -0.02227618
   -0.01736967
K-point    47  0.28571429 -0.28571429  0.28571429  0.02332362
Spin component 1
   -0.43144410
   -0.37886461
   -0.37833010
   -0.32743707
   -0.27209097
   -0.24562143
   -0.24019242
   -0.22163414
   -0.21987753
   -0.19560364
   -0.19002186
   -0.17789181
   -0.13489373
   -0.12731403
   -0.11807479
   -0.10092756
   -0.09279471
   -0.08310687
   -0.06362178
   -0.06078271
   -0.05133644
   -0.02752831
   -0.02154371
   -0.01409492
K-point    51  0.28571429  0.00000000 -0.28571429  0.01166181
Spin component 1
   -0.44172105
   -0.38890982
   -0.32801301
   -0.31015792
   -0.28313478
   -0.27629354
   -0.25379955
   -0.25304011
   -0.22833508
   -0.17608185
   -0.16102865
   -0.15098985
   -0.14951553
   -0.14447354
   -0.12993625
   -0.12587495
   -0.11821678
   -0.05038804
   -0.04757546
   -0.04148988
   -0.03994382
   -0.02510639
   -0.02082658
   -0.01584952
K-point    55  0.28571429  0.42857143 -0.42857143  0.02332362
Spin component 1
   -0.40601188
   -0.38849669
   -0.38833873
   -0.37098078
   -0.24824367
   -0.23293321
   -0.23205269
   -0.21695986
   -0.19327374
   -0.18803233
   -0.17498724
   -0.16914459
   -0.15833506
   -0.14482376
   -0.13969064
   -0.12831915
   -0.06567083
   -0.06216895
   -0.05921818
   -0.05367190
   -0.05225809
   -0.04334875
   -0.03789994
   -0.03248897
K-point    59  0.42857143 -0.42857143  0.28571429  0.02332362
Spin component 1
   -0.38079953
   -0.36424060
   -0.33091299
   -0.32721538
   -0.30934292
   -0.30564116
   -0.27407418
   -0.25842474
   -0.19959711
   -0.18609556
   -0.16528885
   -0.15490304
   -0.14812341
   -0.13375907
   -0.12636935
   -0.10538748
   -0.09721508
   -0.08085480
   -0.07790073
   -0.07574433
   -0.07450221
   -0.05878751
   -0.04406372
   -0.03851395
K-point    63  0.42857143  0.14285714  0.14285714  0.02332362
Spin component 1
   -0.40817402
   -0.35644765
   -0.32350583
   -0.31828154
   -0.27346371
   -0.26764850
   -0.25271890
   -0.25178816
   -0.23112253
   -0.20430664
   -0.20324016
   -0.18480042
   -0.17517943
   -0.17289956
   -0.13746722
   -0.13365542
   -0.12559027
   -0.09817246
   -0.05026279
   -0.04335142
   -0.02779431
   -0.02481644
   -0.01627376
   -0.01023586
K-point     4 -0.42857143  0.00000000  0.00000000  0.00583090
Spin component 1
   -0.41323007
   -0.36071584
   -0.30554618
   -0.29552336
   -0.28523848
   -0.27962219
   -0.25036611
   -0.24576790
   -0.23062018
   -0.22790637
   -0.18945923
   -0.18028924
   -0.17358729
   -0.17053710
   -0.14454116
   -0.14363813
   -0.13346283
   -0.13219384
   -0.04500050
   -0.02864663
   -0.02057220
   -0.01628554
   -0.00689181
   -0.00628711
K-point     8 -0.42857143  0.42857143 -0.42857143  0.02332362
Spin component 1
   -0.36843207
   -0.35209795
   -0.35145420
   -0.33601795
   -0.31008417
   -0.29491744
   -0.29457585
   -0.27878956
   -0.16566961
   -0.15776099
   -0.15064573
   -0.14213024
   -0.14039712
   -0.13947382
   -0.12721136
   -0.11710705
   -0.09077830
   -0.08339569
   -0.08204926
   -0.07865889
   -0.07263489
   -0.06907087
   -0.06556623
   -0.06050056
K-point    12 -0.14285714  0.14285714 -0.14285714  0.02332362
Spin component 1
   -0.47031792
   -0.38279401
   -0.38118340
   -0.31209985
   -0.31024722
   -0.29323601
   -0.23093076
   -0.22847384
   -0.20140995
   -0.16776868
   -0.13749948
   -0.13584377
   -0.12405314
   -0.10015667
   -0.09762701
   -0.07794551
   -0.06414021
   -0.06315018
   -0.04538251
   -0.04283318
   -0.03954650
   -0.03792697
   -0.01716362
   -0.01532005
K-point    16 -0.14285714  0.28571429 -0.14285714  0.02332362
Spin component 1
   -0.46252846
   -0.40862575
   -0.37526201
   -0.32391963
   -0.30302533
   -0.26834515
   -0.25208821
   -0.20246884
   -0.18556750
   -0.15599917
   -0.13811312
   -0.13253892
   -0.12873784
   -0.12386364
   -0.09721372
   -0.09191227
   -0.08017066
   -0.05539143
   -0.05055452
   -0.05019235
   -0.04341952
   -0.03872148
   -0.01390201
   -0.01043026
K-point    20 -0.14285714  0.42857143 -0.14285714  0.02332362
Spin component 1
   -0.44958682
   -0.43156963
   -0.36278316
   -0.34550959
   -0.29110689
   -0.27478434
   -0.22319263
   -0.18704696
   -0.18159845
   -0.16681802
   -0.15085986
   -0.12590773
   -0.12400737
   -0.11567810
   -0.11138160
   -0.10296139
   -0.08817766
   -0.06909295
   -0.05419114
   -0.05091863
   -0.03789039
   -0.03613888
   -0.01364288
   -0.01017345
K-point    24  0.00000000 -0.42857143 -0.14285714  0.01166181
Spin component 1
   -0.45740001
   -0.43933441
   -0.37031169
   -0.35295635
   -0.29829335
   -0.28185951
   -0.22862481
   -0.18200717
   -0.15914390
   -0.12764843
   -0.12243412
   -0.11942310
   -0.11604066
   -0.10247119
   -0.08687727
   -0.08452627
   -0.07634595
   -0.07253616
   -0.07230278
   -0.06080522
   -0.05439499
   -0.04781755
   -0.00796711
   -0.00791672
K-point    28  0.00000000 -0.28571429 -0.14285714  0.01166181
Spin component 1
   -0.47037396
   -0.41631954
   -0.38284576
   -0.33126969
   -0.31029868
   -0.27523701
   -0.25844277
   -0.19777248
   -0.14428174
   -0.13691378
   -0.12973605
   -0.12568929
   -0.09640912
   -0.09439299
   -0.08828375
   -0.07860490
   -0.07670405
   -0.06475480
   -0.06244109
   -0.05940795
   -0.04180769
   -0.04067835
   -0.01525300
   -0.01391400
K-point    32  0.00000000 -0.14285714 -0.14285714  0.01166181
Spin component 1
   -0.47818104
   -0.39040919
   -0.38877422
   -0.31954426
   -0.31756910
   -0.30002995
   -0.23726825
   -0.23263798
   -0.17490560
   -0.13529518
   -0.13215727
   -0.10145620
   -0.09241135
   -0.09161181
   -0.07744861
   -0.06804824
   -0.06782025
   -0.06077109
   -0.05232647
   -0.04789938
   -0.03614726
   -0.03367361
   -0.02923141
   -0.02285044
K-point    36  0.00000000  0.00000000 -0.14285714  0.00583090
Spin component 1
   -0.48078945
   -0.39293644
   -0.36377725
   -0.34636856
   -0.32000196
   -0.27845440
   -0.26321204
   -0.20974677
   -0.20214685
   -0.13723758
   -0.13333910
   -0.10324574
   -0.09396109
   -0.07467584
   -0.06876564
   -0.06257342
   -0.06104178
   -0.05246111
   -0.04891646
   -0.04788354
   -0.03671099
   -0.03629445
   -0.03496581
   -0.02806065
K-point    40  0.14285714  0.00000000 -0.14285714  0.01166181
Spin component 1
   -0.47291836
   -0.38531160
   -0.35634007
   -0.33885939
   -0.31266557
   -0.27140463
   -0.25756511
   -0.20932885
   -0.20317435
   -0.19097487
   -0.13920751
   -0.13103169
   -0.11107173
   -0.10411353
   -0.10091289
   -0.07043242
   -0.06219263
   -0.05390335
   -0.04465973
   -0.04147544
   -0.03604209
   -0.03058155
   -0.02492950
   -0.02056554
K-point    44  0.28571429 -0.28571429 -0.42857143  0.02332362
Spin component 1
   -0.41873354
   -0.40111771
   -0.36593389
   -0.34882893
   -0.26100127
   -0.24666372
   -0.22290852
   -0.21488469
   -0.20915407
   -0.20306478
   -0.19435422
   -0.16541160
   -0.16143388
   -0.13427046
   -0.11104217
   -0.10202514
   -0.07875986
   -0.07637804
   -0.06990233
   -0.06084565
   -0.04266728
   -0.03359612
   -0.03208422
   -0.02586856
K-point    48  0.28571429 -0.14285714 -0.14285714  0.02332362
Spin component 1
   -0.44683795
   -0.36015514
   -0.35892812
   -0.29287451
   -0.28861026
   -0.28666379
   -0.26720418
   -0.21491127
   -0.20384311
   -0.20310648
   -0.19901340
   -0.15131397
   -0.14960676
   -0.14592050
   -0.13438093
   -0.11352760
   -0.09177370
   -0.07227726
   -0.06075616
   -0.05276837
   -0.02819429
   -0.01570531
   -0.01158384
   -0.00828150
K-point    52  0.28571429  0.00000000 -0.14285714  0.01166181
Spin component 1
   -0.44941755
   -0.36263041
   -0.33535894
   -0.31667383
   -0.29095356
   -0.28749098
   -0.25197172
   -0.23199636
   -0.20618562
   -0.18270399
   -0.18219552
   -0.17563816
   -0.16607131
   -0.15134984
   -0.12491498
   -0.11107255
   -0.10216898
   -0.06885940
   -0.05188002
   -0.04292067
   -0.01984030
   -0.01690867
   -0.01318597
   -0.01189790
K-point    56  0.28571429  0.42857143  0.00000000  0.01166181
Spin component 1
   -0.42884251
   -0.41099861
   -0.31983422
   -0.30404378
   -0.29425726
   -0.27759238
   -0.26676330
   -0.25050317
   -0.20420365
   -0.16786383
   -0.16642240
   -0.15547594
   -0.14806540
   -0.14101153
   -0.11820289
   -0.11196193
   -0.09100868
   -0.08980337
   -0.07068449
   -0.05318613
   -0.04960904
   -0.03873904
   -0.00536646
   -0.00513688
K-point    60  0.42857143 -0.28571429 -0.28571429  0.02332362
Spin component 1
   -0.39310961
   -0.34849933
   -0.34179970
   -0.33130140
   -0.29561885
   -0.28542632
   -0.28033917
   -0.23834236
   -0.21001005
   -0.20315801
   -0.17045253
   -0.16367647
   -0.15945146
   -0.15715798
   -0.13598892
   -0.12271574
   -0.08989064
   -0.08252850
   -0.07246467
   -0.06198518
   -0.04975580
   -0.04356607
   -0.04025692
   -0.03054398
K-point    64  0.42857143  0.14285714  0.42857143  0.02332362
Spin component 1
   -0.38805464
   -0.37070294
   -0.33702190
   -0.32099786
   -0.29689857
   -0.28193519
   -0.24889802
   -0.23387277
   -0.22844370
   -0.21416396
   -0.18800922
   -0.17532308
   -0.16751101
   -0.14396162
   -0.14225003
   -0.13033500
   -0.08992860
   -0.06866413
   -0.06482809
   -0.05351201
   -0.04498966
   -0.03803706
   -0.03646021
   -0.03467011
