 BEGIN header
 Number of ions         8
 Number of branches     24
 Number of wavevectors  1
 Frequencies in         cm-1
 IR intensities in      (D/A)**2/amu
 Raman activities in    A**4 amu**(-1)
 Unit cell vectors (A)
    3.546457    0.000000    0.000000
    0.000000    2.059870    0.000000
    0.000000    0.000000    3.289006
 Fractional Co-ordinates
     1     0.355822    0.142090    0.379318   H         1.007825
     2     0.477075    0.359709    0.499582   H         1.007825
     3     0.977075    0.640291    0.499582   H         1.007825
     4     0.855822    0.857910    0.379318   H         1.007825
     5     0.022925    0.359709    0.999582   H         1.007825
     6     0.144178    0.142090    0.879318   H         1.007825
     7     0.522925    0.640291    0.999582   H         1.007825
     8     0.644178    0.857910    0.879318   H         1.007825
 END header
     q-pt=    1    0.000000  0.000000  0.000000      1.0000000000
       1      -0.172531              0.0000000               0.0000000          
       2      -0.140871              0.0000000               0.0000000          
       3      -0.099611              0.0000000               0.0000000          
       4     276.958797              0.0508188              64.6535692          
       5     359.364503              0.0035517             267.6487400          
       6     389.915765              0.0004355             289.2428932          
       7     394.094836              0.0000000              66.7205555          
       8     485.002820              0.0804404              45.3348749          
       9     531.670300              0.0000000               0.1531464          
      10     570.946873              0.5711946              10.3956397          
      11     654.715568              0.0283297              19.8036930          
      12     676.178145              0.6548626               3.0927977          
      13     695.274702              0.0000000               7.3679347          
      14     708.209819              0.0945569              13.6675514          
      15     741.254128              0.0000000               0.8196935          
      16     881.111631              0.5201598               1.6784597          
      17     949.719199              0.5768027               0.6994923          
      18    1073.054881              0.0000000               6.3627994          
      19    1169.965143              0.3441364               0.0506343          
      20    1241.060985              0.3301480               0.1166449          
      21    4265.191919              0.0750796            7981.0462257          
      22    4416.102805              0.0034924              96.4437335          
      23    4425.389830              0.0000000             160.0267370          
      24    4469.253163              0.0173872             105.7036489          
                        Phonon Eigenvectors
Mode Ion                X                                   Y                                   Z
   1   1 -0.000025636087  0.000000000000     -0.000020935500  0.000000000000     -0.353548938424  0.000000000000
   1   2 -0.000010464370  0.000000000000     -0.000027055913  0.000000000000     -0.353557839969  0.000000000000
   1   3 -0.000010464363  0.000000000000      0.000027021631  0.000000000000     -0.353557839971  0.000000000000
   1   4 -0.000025636090  0.000000000000      0.000020901219  0.000000000000     -0.353548938417  0.000000000000
   1   5  0.000010481770  0.000000000000     -0.000027055913  0.000000000000     -0.353557839971  0.000000000000
   1   6  0.000025653488  0.000000000000     -0.000020935500  0.000000000000     -0.353548938426  0.000000000000
   1   7  0.000010481764  0.000000000000      0.000027021632  0.000000000000     -0.353557839973  0.000000000000
   1   8  0.000025653490  0.000000000000      0.000020901219  0.000000000000     -0.353548938419  0.000000000000
   2   1  0.353550361662  0.000000000000      0.000003360772  0.000000000000      0.000041777211  0.000000000000
   2   2  0.353556415372  0.000000000000      0.000007240069  0.000000000000      0.000033327141  0.000000000000
   2   3  0.353556415373  0.000000000000     -0.000007246523  0.000000000000      0.000033327141  0.000000000000
   2   4  0.353550361662  0.000000000000     -0.000003367226  0.000000000000      0.000041777212  0.000000000000
   2   5  0.353556415372  0.000000000000     -0.000007246522  0.000000000000     -0.000033309740  0.000000000000
   2   6  0.353550361660  0.000000000000     -0.000003367225  0.000000000000     -0.000041759812  0.000000000000
   2   7  0.353556415371  0.000000000000      0.000007240067  0.000000000000     -0.000033309740  0.000000000000
   2   8  0.353550361661  0.000000000000      0.000003360771  0.000000000000     -0.000041759810  0.000000000000
   3   1 -0.000023471822 -0.000000000000      0.353554920848 -0.000000000000      0.000075263387 -0.000000000000
   3   2  0.000065098480 -0.000000000000      0.353551844980 -0.000000000000     -0.000019958618 -0.000000000000
   3   3 -0.000065092027 -0.000000000000      0.353551844983 -0.000000000000      0.000019924337 -0.000000000000
   3   4  0.000023478273 -0.000000000000      0.353554920850 -0.000000000000     -0.000075297668 -0.000000000000
   3   5 -0.000065092026 -0.000000000000      0.353551844980 -0.000000000000     -0.000019958619 -0.000000000000
   3   6  0.000023478276 -0.000000000000      0.353554920848 -0.000000000000      0.000075263387 -0.000000000000
   3   7  0.000065098481 -0.000000000000      0.353551844983 -0.000000000000      0.000019924336 -0.000000000000
   3   8 -0.000023471819 -0.000000000000      0.353554920850 -0.000000000000     -0.000075297668 -0.000000000000
   4   1 -0.270985010950  0.000000000000      0.002334593597  0.000000000000      0.244629561603  0.000000000000
   4   2  0.206079667448  0.000000000000     -0.002458006309  0.000000000000     -0.272476017243  0.000000000000
   4   3 -0.206079667448  0.000000000000     -0.002458006309  0.000000000000      0.272476017243  0.000000000000
   4   4  0.270985010950  0.000000000000      0.002334593597  0.000000000000     -0.244629561603  0.000000000000
   4   5 -0.206079667448  0.000000000000     -0.002458006309  0.000000000000     -0.272476017243  0.000000000000
   4   6  0.270985010950  0.000000000000      0.002334593597  0.000000000000      0.244629561603  0.000000000000
   4   7  0.206079667448  0.000000000000     -0.002458006309  0.000000000000      0.272476017243  0.000000000000
   4   8 -0.270985010950  0.000000000000      0.002334593597  0.000000000000     -0.244629561603  0.000000000000
   5   1 -0.275607308284  0.000000000000      0.135360468237  0.000000000000      0.146007760841  0.000000000000
   5   2  0.297959363784  0.000000000000     -0.155908039646  0.000000000000     -0.145989005547  0.000000000000
   5   3  0.297959363784  0.000000000000      0.155908039646  0.000000000000     -0.145989005547  0.000000000000
   5   4 -0.275607308284  0.000000000000     -0.135360468237  0.000000000000      0.146007760841  0.000000000000
   5   5 -0.297959363784  0.000000000000     -0.155908039646  0.000000000000     -0.145989005547  0.000000000000
   5   6  0.275607308284  0.000000000000      0.135360468237  0.000000000000      0.146007760841  0.000000000000
   5   7 -0.297959363784  0.000000000000      0.155908039646  0.000000000000     -0.145989005547  0.000000000000
   5   8  0.275607308284  0.000000000000     -0.135360468237  0.000000000000      0.146007760841  0.000000000000
   6   1  0.020184361773  0.000000000000     -0.251752710939  0.000000000000      0.259295003784  0.000000000000
   6   2 -0.002041249483  0.000000000000      0.227469910133  0.000000000000     -0.259292380088  0.000000000000
   6   3 -0.002041249483  0.000000000000     -0.227469910133  0.000000000000     -0.259292380088  0.000000000000
   6   4  0.020184361773  0.000000000000      0.251752710939  0.000000000000      0.259295003784  0.000000000000
   6   5  0.002041249483  0.000000000000      0.227469910133  0.000000000000     -0.259292380088  0.000000000000
   6   6 -0.020184361773  0.000000000000     -0.251752710939  0.000000000000      0.259295003784  0.000000000000
   6   7  0.002041249483  0.000000000000     -0.227469910133  0.000000000000     -0.259292380088  0.000000000000
   6   8 -0.020184361773  0.000000000000      0.251752710939  0.000000000000      0.259295003784  0.000000000000
   7   1 -0.090536275485  0.000000000000     -0.147539731253  0.000000000000      0.278028010856  0.000000000000
   7   2  0.200564605706  0.000000000000      0.083689318564  0.000000000000     -0.309039758929  0.000000000000
   7   3 -0.200564605706  0.000000000000      0.083689318564  0.000000000000      0.309039758929  0.000000000000
   7   4  0.090536275485  0.000000000000     -0.147539731253  0.000000000000     -0.278028010856  0.000000000000
   7   5  0.200564605706  0.000000000000     -0.083689318564  0.000000000000      0.309039758929  0.000000000000
   7   6 -0.090536275485  0.000000000000      0.147539731253  0.000000000000     -0.278028010856  0.000000000000
   7   7 -0.200564605706  0.000000000000     -0.083689318564  0.000000000000     -0.309039758929  0.000000000000
   7   8  0.090536275485  0.000000000000      0.147539731253  0.000000000000      0.278028010856  0.000000000000
   8   1 -0.252687214909  0.000000000000      0.235746062382  0.000000000000     -0.020960380368  0.000000000000
   8   2  0.252689329462  0.000000000000     -0.257260103302  0.000000000000     -0.009948365314  0.000000000000
   8   3  0.252689329462  0.000000000000      0.257260103302  0.000000000000     -0.009948365314  0.000000000000
   8   4 -0.252687214909  0.000000000000     -0.235746062383  0.000000000000     -0.020960380368  0.000000000000
   8   5  0.252689329462  0.000000000000      0.257260103302  0.000000000000      0.009948365314  0.000000000000
   8   6 -0.252687214909  0.000000000000     -0.235746062382  0.000000000000      0.020960380368  0.000000000000
   8   7  0.252689329462  0.000000000000     -0.257260103302  0.000000000000      0.009948365314  0.000000000000
   8   8 -0.252687214909  0.000000000000      0.235746062382  0.000000000000      0.020960380368  0.000000000000
   9   1 -0.091945970605  0.000000000000      0.228833805346  0.000000000000      0.239810601787  0.000000000000
   9   2  0.234055517690  0.000000000000     -0.103071257524  0.000000000000      0.257422286918  0.000000000000
   9   3 -0.234055517690  0.000000000000     -0.103071257524  0.000000000000     -0.257422286918  0.000000000000
   9   4  0.091945970605  0.000000000000      0.228833805346  0.000000000000     -0.239810601787  0.000000000000
   9   5  0.234055517690  0.000000000000      0.103071257524  0.000000000000     -0.257422286918  0.000000000000
   9   6 -0.091945970605  0.000000000000     -0.228833805346  0.000000000000     -0.239810601787  0.000000000000
   9   7 -0.234055517690  0.000000000000      0.103071257524  0.000000000000      0.257422286918  0.000000000000
   9   8  0.091945970605  0.000000000000     -0.228833805346  0.000000000000      0.239810601787  0.000000000000
  10   1 -0.045338906550  0.000000000000     -0.386876752766  0.000000000000      0.105235746179  0.000000000000
  10   2  0.045345394802  0.000000000000     -0.269719964381  0.000000000000     -0.111315477058  0.000000000000
  10   3  0.045345394802  0.000000000000      0.269719964381  0.000000000000     -0.111315477058  0.000000000000
  10   4 -0.045338906550  0.000000000000      0.386876752766  0.000000000000      0.105235746179  0.000000000000
  10   5  0.045345394802  0.000000000000      0.269719964381  0.000000000000      0.111315477058  0.000000000000
  10   6 -0.045338906550  0.000000000000      0.386876752766  0.000000000000     -0.105235746179  0.000000000000
  10   7  0.045345394802  0.000000000000     -0.269719964381  0.000000000000      0.111315477058  0.000000000000
  10   8 -0.045338906550  0.000000000000     -0.386876752766  0.000000000000     -0.105235746179  0.000000000000
  11   1 -0.115946898525  0.000000000000      0.261732545656  0.000000000000     -0.261518493260  0.000000000000
  11   2  0.175618704498  0.000000000000     -0.261718159337  0.000000000000      0.017948388601  0.000000000000
  11   3 -0.175618704498  0.000000000000     -0.261718159337  0.000000000000     -0.017948388601  0.000000000000
  11   4  0.115946898525  0.000000000000      0.261732545656  0.000000000000      0.261518493260  0.000000000000
  11   5 -0.175618704498  0.000000000000     -0.261718159337  0.000000000000      0.017948388601  0.000000000000
  11   6  0.115946898525  0.000000000000      0.261732545656  0.000000000000     -0.261518493260  0.000000000000
  11   7  0.175618704498  0.000000000000     -0.261718159337  0.000000000000     -0.017948388601  0.000000000000
  11   8 -0.115946898525  0.000000000000      0.261732545656  0.000000000000      0.261518493260  0.000000000000
  12   1 -0.358118903221  0.000000000000     -0.045953731028  0.000000000000      0.009610421154  0.000000000000
  12   2 -0.342808200281  0.000000000000     -0.044019739417  0.000000000000     -0.009567963601  0.000000000000
  12   3 -0.342808200281  0.000000000000      0.044019739417  0.000000000000     -0.009567963601  0.000000000000
  12   4 -0.358118903221  0.000000000000      0.045953731028  0.000000000000      0.009610421154  0.000000000000
  12   5  0.342808200281  0.000000000000     -0.044019739417  0.000000000000     -0.009567963601  0.000000000000
  12   6  0.358118903221  0.000000000000     -0.045953731028  0.000000000000      0.009610421154  0.000000000000
  12   7  0.342808200281  0.000000000000      0.044019739417  0.000000000000     -0.009567963601  0.000000000000
  12   8  0.358118903221  0.000000000000      0.045953731028  0.000000000000      0.009610421154  0.000000000000
  13   1 -0.130261691758  0.000000000000     -0.118526056343  0.000000000000     -0.144082306474  0.000000000000
  13   2  0.111008724861  0.000000000000     -0.424106420822  0.000000000000     -0.077682439528  0.000000000000
  13   3 -0.111008724861  0.000000000000     -0.424106420822  0.000000000000      0.077682439528  0.000000000000
  13   4  0.130261691758  0.000000000000     -0.118526056343  0.000000000000      0.144082306474  0.000000000000
  13   5  0.111008724861  0.000000000000      0.424106420822  0.000000000000      0.077682439528  0.000000000000
  13   6 -0.130261691758  0.000000000000      0.118526056343  0.000000000000      0.144082306474  0.000000000000
  13   7 -0.111008724861  0.000000000000      0.424106420822  0.000000000000     -0.077682439528  0.000000000000
  13   8  0.130261691758  0.000000000000      0.118526056343  0.000000000000     -0.144082306474  0.000000000000
  14   1  0.132422307996  0.000000000000     -0.007158162133  0.000000000000     -0.280925126670  0.000000000000
  14   2 -0.132406756356  0.000000000000     -0.254125569943  0.000000000000      0.267175619842  0.000000000000
  14   3 -0.132406756356  0.000000000000      0.254125569943  0.000000000000      0.267175619842  0.000000000000
  14   4  0.132422307996  0.000000000000      0.007158162133  0.000000000000     -0.280925126670  0.000000000000
  14   5 -0.132406756356  0.000000000000      0.254125569943  0.000000000000     -0.267175619842  0.000000000000
  14   6  0.132422307996  0.000000000000      0.007158162133  0.000000000000      0.280925126670  0.000000000000
  14   7 -0.132406756356  0.000000000000     -0.254125569943  0.000000000000     -0.267175619842  0.000000000000
  14   8  0.132422307996  0.000000000000     -0.007158162133  0.000000000000      0.280925126670  0.000000000000
  15   1 -0.102941018581  0.000000000000      0.339094490424  0.000000000000     -0.222894846523  0.000000000000
  15   2  0.136809624793  0.000000000000      0.088585734095  0.000000000000     -0.219480420380  0.000000000000
  15   3 -0.136809624793  0.000000000000      0.088585734095  0.000000000000      0.219480420380  0.000000000000
  15   4  0.102941018581  0.000000000000      0.339094490424  0.000000000000      0.222894846523  0.000000000000
  15   5  0.136809624793  0.000000000000     -0.088585734095  0.000000000000      0.219480420380  0.000000000000
  15   6 -0.102941018581  0.000000000000     -0.339094490424  0.000000000000      0.222894846523  0.000000000000
  15   7 -0.136809624793  0.000000000000     -0.088585734095  0.000000000000     -0.219480420380  0.000000000000
  15   8  0.102941018581  0.000000000000     -0.339094490424  0.000000000000     -0.222894846523  0.000000000000
  16   1 -0.053447107855  0.000000000000      0.346082223007  0.000000000000      0.014408954935  0.000000000000
  16   2 -0.035279300714  0.000000000000      0.354555236288  0.000000000000     -0.014451261525  0.000000000000
  16   3 -0.035279300714  0.000000000000     -0.354555236288  0.000000000000     -0.014451261525  0.000000000000
  16   4 -0.053447107855  0.000000000000     -0.346082223007  0.000000000000      0.014408954935  0.000000000000
  16   5  0.035279300714  0.000000000000      0.354555236288  0.000000000000     -0.014451261525  0.000000000000
  16   6  0.053447107855  0.000000000000      0.346082223007  0.000000000000      0.014408954935  0.000000000000
  16   7  0.035279300714  0.000000000000     -0.354555236288  0.000000000000     -0.014451261525  0.000000000000
  16   8  0.053447107855  0.000000000000     -0.346082223007  0.000000000000      0.014408954935  0.000000000000
  17   1  0.014271538059  0.000000000000      0.091172885044  0.000000000000      0.294157358500  0.000000000000
  17   2  0.139148046090  0.000000000000     -0.091240862495  0.000000000000      0.356746692984  0.000000000000
  17   3 -0.139148046090  0.000000000000     -0.091240862495  0.000000000000     -0.356746692984  0.000000000000
  17   4 -0.014271538059  0.000000000000      0.091172885044  0.000000000000     -0.294157358500  0.000000000000
  17   5 -0.139148046090  0.000000000000     -0.091240862495  0.000000000000      0.356746692984  0.000000000000
  17   6 -0.014271538059  0.000000000000      0.091172885044  0.000000000000      0.294157358500  0.000000000000
  17   7  0.139148046090  0.000000000000     -0.091240862495  0.000000000000     -0.356746692984  0.000000000000
  17   8  0.014271538059  0.000000000000      0.091172885044  0.000000000000     -0.294157358500  0.000000000000
  18   1 -0.401091080294  0.000000000000      0.044237808028  0.000000000000      0.087925348259  0.000000000000
  18   2 -0.281682945272  0.000000000000      0.008165188590  0.000000000000     -0.005113005123  0.000000000000
  18   3  0.281682945272  0.000000000000      0.008165188590  0.000000000000      0.005113005123  0.000000000000
  18   4  0.401091080294  0.000000000000      0.044237808028  0.000000000000     -0.087925348259  0.000000000000
  18   5 -0.281682945272  0.000000000000     -0.008165188590  0.000000000000      0.005113005123  0.000000000000
  18   6 -0.401091080294  0.000000000000     -0.044237808028  0.000000000000     -0.087925348259  0.000000000000
  18   7  0.281682945272  0.000000000000     -0.008165188590  0.000000000000     -0.005113005123  0.000000000000
  18   8  0.401091080294  0.000000000000     -0.044237808028  0.000000000000      0.087925348259  0.000000000000
  19   1  0.345190678873  0.000000000000     -0.044282929420  0.000000000000     -0.021007100463  0.000000000000
  19   2  0.339406631591  0.000000000000      0.044242224396  0.000000000000     -0.106239743617  0.000000000000
  19   3 -0.339406631591  0.000000000000      0.044242224396  0.000000000000      0.106239743617  0.000000000000
  19   4 -0.345190678873  0.000000000000     -0.044282929420  0.000000000000      0.021007100463  0.000000000000
  19   5 -0.339406631591  0.000000000000      0.044242224396  0.000000000000     -0.106239743617  0.000000000000
  19   6 -0.345190678873  0.000000000000     -0.044282929420  0.000000000000     -0.021007100463  0.000000000000
  19   7  0.339406631591  0.000000000000      0.044242224396  0.000000000000      0.106239743617  0.000000000000
  19   8  0.345190678873  0.000000000000     -0.044282929420  0.000000000000      0.021007100463  0.000000000000
  20   1  0.009062913027  0.000000000000     -0.006686972139  0.000000000000     -0.348343132806  0.000000000000
  20   2 -0.008988187463  0.000000000000      0.018364566954  0.000000000000     -0.357927597434  0.000000000000
  20   3 -0.008988187463  0.000000000000     -0.018364566954  0.000000000000     -0.357927597434  0.000000000000
  20   4  0.009062913027  0.000000000000      0.006686972139  0.000000000000     -0.348343132806  0.000000000000
  20   5 -0.008988187463  0.000000000000     -0.018364566954  0.000000000000      0.357927597434  0.000000000000
  20   6  0.009062913027  0.000000000000      0.006686972139  0.000000000000      0.348343132806  0.000000000000
  20   7 -0.008988187463  0.000000000000      0.018364566954  0.000000000000      0.357927597434  0.000000000000
  20   8  0.009062913027  0.000000000000     -0.006686972139  0.000000000000      0.348343132806  0.000000000000
  21   1 -0.206221871587 -0.000000000000     -0.215437845465 -0.000000000000     -0.190134175651 -0.000000000000
  21   2  0.206043586372 -0.000000000000      0.215181247764 -0.000000000000      0.190134533411 -0.000000000000
  21   3  0.206043586372 -0.000000000000     -0.215181247764 -0.000000000000      0.190134533411 -0.000000000000
  21   4 -0.206221871587 -0.000000000000      0.215437845465 -0.000000000000     -0.190134175651 -0.000000000000
  21   5 -0.206043586372 -0.000000000000      0.215181247764 -0.000000000000      0.190134533411 -0.000000000000
  21   6  0.206221871587 -0.000000000000     -0.215437845465 -0.000000000000     -0.190134175651 -0.000000000000
  21   7 -0.206043586372 -0.000000000000     -0.215181247764 -0.000000000000      0.190134533411 -0.000000000000
  21   8  0.206221871587 -0.000000000000      0.215437845465 -0.000000000000     -0.190134175651 -0.000000000000
  22   1 -0.203661220403  0.000000000000     -0.211315445123  0.000000000000     -0.195510187634  0.000000000000
  22   2  0.203660065926  0.000000000000      0.214828576759  0.000000000000      0.194974143523  0.000000000000
  22   3  0.203660065926  0.000000000000     -0.214828576759  0.000000000000      0.194974143523  0.000000000000
  22   4 -0.203661220403  0.000000000000      0.211315445123  0.000000000000     -0.195510187634  0.000000000000
  22   5  0.203660065926  0.000000000000     -0.214828576759  0.000000000000     -0.194974143523  0.000000000000
  22   6 -0.203661220403  0.000000000000      0.211315445123  0.000000000000      0.195510187634  0.000000000000
  22   7  0.203660065926  0.000000000000      0.214828576759  0.000000000000     -0.194974143523  0.000000000000
  22   8 -0.203661220403  0.000000000000     -0.211315445123  0.000000000000      0.195510187634  0.000000000000
  23   1 -0.211920043822  0.000000000000     -0.211841058593  0.000000000000     -0.192402208766  0.000000000000
  23   2  0.211203128501  0.000000000000      0.211168309786  0.000000000000      0.184379593329  0.000000000000
  23   3 -0.211203128501  0.000000000000      0.211168309786  0.000000000000     -0.184379593329  0.000000000000
  23   4  0.211920043822  0.000000000000     -0.211841058593  0.000000000000      0.192402208766  0.000000000000
  23   5  0.211203128501  0.000000000000     -0.211168309786  0.000000000000     -0.184379593329  0.000000000000
  23   6 -0.211920043822  0.000000000000      0.211841058593  0.000000000000      0.192402208766  0.000000000000
  23   7 -0.211203128501  0.000000000000     -0.211168309786  0.000000000000      0.184379593329  0.000000000000
  23   8  0.211920043822  0.000000000000      0.211841058593  0.000000000000     -0.192402208766  0.000000000000
  24   1 -0.209196458937  0.000000000000     -0.214979230054  0.000000000000     -0.186533106380  0.000000000000
  24   2  0.205256417097  0.000000000000      0.214979968323  0.000000000000      0.192040591797  0.000000000000
  24   3 -0.205256417097  0.000000000000      0.214979968323  0.000000000000     -0.192040591797  0.000000000000
  24   4  0.209196458937  0.000000000000     -0.214979230054  0.000000000000      0.186533106380  0.000000000000
  24   5 -0.205256417097  0.000000000000      0.214979968323  0.000000000000      0.192040591797  0.000000000000
  24   6  0.209196458937  0.000000000000     -0.214979230054  0.000000000000     -0.186533106380  0.000000000000
  24   7  0.205256417097  0.000000000000      0.214979968323  0.000000000000     -0.192040591797  0.000000000000
  24   8 -0.209196458937  0.000000000000     -0.214979230054  0.000000000000      0.186533106380  0.000000000000
     q-pt=    1    0.000000  0.000000  0.000000      1.0000000000    0.000000  0.000000  1.000000
       1      -0.171974              0.0000000                                  
       2      -0.140871              0.0000000                                  
       3      -0.099611              0.0000000                                  
       4     276.958797              0.0508188                                  
       5     359.472364              0.0031273                                  
       6     389.927954              0.0003834                                  
       7     394.094836              0.0000000                                  
       8     485.002820              0.0804404                                  
       9     531.670300              0.0000000                                  
      10     570.946873              0.5711946                                  
      11     654.715568              0.0283297                                  
      12     686.929433              0.6048395                                  
      13     695.274702              0.0000000                                  
      14     708.209819              0.0945569                                  
      15     741.254128              0.0000000                                  
      16     888.280276              0.5704248                                  
      17     949.719199              0.5768027                                  
      18    1073.054881              0.0000000                                  
      19    1169.965143              0.3441364                                  
      20    1241.060985              0.3301480                                  
      21    4265.396995              0.0753143                                  
      22    4416.102805              0.0034924                                  
      23    4425.389830              0.0000000                                  
      24    4469.253163              0.0173872                                  
                        Phonon Eigenvectors
Mode Ion                X                                   Y                                   Z
   1   1 -0.000024160152  0.000000000000     -0.000020306381  0.000000000000     -0.353549017400  0.000000000000
   1   2 -0.000009549177  0.000000000000     -0.000025991143  0.000000000000     -0.353557761238  0.000000000000
   1   3 -0.000009549172  0.000000000000      0.000025966399  0.000000000000     -0.353557761239  0.000000000000
   1   4 -0.000024160154  0.000000000000      0.000020281636  0.000000000000     -0.353549017395  0.000000000000
   1   5  0.000009584026  0.000000000000     -0.000025991144  0.000000000000     -0.353557761241  0.000000000000
   1   6  0.000024195001  0.000000000000     -0.000020306381  0.000000000000     -0.353549017404  0.000000000000
   1   7  0.000009584021  0.000000000000      0.000025966399  0.000000000000     -0.353557761243  0.000000000000
   1   8  0.000024195003  0.000000000000      0.000020281636  0.000000000000     -0.353549017399  0.000000000000
   2   1  0.353550361662  0.000000000000      0.000003361699  0.000000000000      0.000041785935  0.000000000000
   2   2  0.353556415372  0.000000000000      0.000007240996  0.000000000000      0.000033335865  0.000000000000
   2   3  0.353556415373  0.000000000000     -0.000007245597  0.000000000000      0.000033335865  0.000000000000
   2   4  0.353550361662  0.000000000000     -0.000003366300  0.000000000000      0.000041785936  0.000000000000
   2   5  0.353556415372  0.000000000000     -0.000007245594  0.000000000000     -0.000033301016  0.000000000000
   2   6  0.353550361660  0.000000000000     -0.000003366298  0.000000000000     -0.000041751087  0.000000000000
   2   7  0.353556415371  0.000000000000      0.000007240993  0.000000000000     -0.000033301016  0.000000000000
   2   8  0.353550361660  0.000000000000      0.000003361697  0.000000000000     -0.000041751086  0.000000000000
   3   1 -0.000023472748  0.000000000000      0.353554920849  0.000000000000      0.000075268155  0.000000000000
   3   2  0.000065097553  0.000000000000      0.353551844981  0.000000000000     -0.000019953850  0.000000000000
   3   3 -0.000065092953  0.000000000000      0.353551844982  0.000000000000      0.000019929105  0.000000000000
   3   4  0.000023477347  0.000000000000      0.353554920850  0.000000000000     -0.000075292899  0.000000000000
   3   5 -0.000065092952  0.000000000000      0.353551844981  0.000000000000     -0.000019953850  0.000000000000
   3   6  0.000023477349  0.000000000000      0.353554920849  0.000000000000      0.000075268155  0.000000000000
   3   7  0.000065097554  0.000000000000      0.353551844983  0.000000000000      0.000019929105  0.000000000000
   3   8 -0.000023472746  0.000000000000      0.353554920850  0.000000000000     -0.000075292900  0.000000000000
   4   1 -0.270985010950  0.000000000000      0.002334593597  0.000000000000      0.244629561603  0.000000000000
   4   2  0.206079667448  0.000000000000     -0.002458006309  0.000000000000     -0.272476017243  0.000000000000
   4   3 -0.206079667448  0.000000000000     -0.002458006309  0.000000000000      0.272476017243  0.000000000000
   4   4  0.270985010950  0.000000000000      0.002334593597  0.000000000000     -0.244629561603  0.000000000000
   4   5 -0.206079667448  0.000000000000     -0.002458006309  0.000000000000     -0.272476017243  0.000000000000
   4   6  0.270985010950  0.000000000000      0.002334593597  0.000000000000      0.244629561603  0.000000000000
   4   7  0.206079667448  0.000000000000     -0.002458006309  0.000000000000      0.272476017243  0.000000000000
   4   8 -0.270985010950  0.000000000000      0.002334593597  0.000000000000     -0.244629561603  0.000000000000
   5   1  0.274513448704  0.000000000000     -0.135704986030  0.000000000000     -0.146301281688  0.000000000000
   5   2 -0.299008144067  0.000000000000      0.154976642154  0.000000000000      0.146283383852  0.000000000000
   5   3 -0.299008144067  0.000000000000     -0.154976642154  0.000000000000      0.146283383852  0.000000000000
   5   4  0.274513448704  0.000000000000      0.135704986030  0.000000000000     -0.146301281688  0.000000000000
   5   5  0.299008144067  0.000000000000      0.154976642154  0.000000000000      0.146283383852  0.000000000000
   5   6 -0.274513448704  0.000000000000     -0.135704986030  0.000000000000     -0.146301281688  0.000000000000
   5   7  0.299008144067  0.000000000000     -0.154976642154  0.000000000000      0.146283383852  0.000000000000
   5   8 -0.274513448704  0.000000000000      0.135704986030  0.000000000000     -0.146301281688  0.000000000000
   6   1 -0.020108013929  0.000000000000      0.252148904433  0.000000000000     -0.259126959389  0.000000000000
   6   2  0.002791386516  0.000000000000     -0.227413131348  0.000000000000      0.259124087145  0.000000000000
   6   3  0.002791386517  0.000000000000      0.227413131347  0.000000000000      0.259124087145  0.000000000000
   6   4 -0.020108013930  0.000000000000     -0.252148904433  0.000000000000     -0.259126959389  0.000000000000
   6   5 -0.002791386517  0.000000000000     -0.227413131347  0.000000000000      0.259124087145  0.000000000000
   6   6  0.020108013930  0.000000000000      0.252148904433  0.000000000000     -0.259126959389  0.000000000000
   6   7 -0.002791386516  0.000000000000      0.227413131348  0.000000000000      0.259124087145  0.000000000000
   6   8  0.020108013929  0.000000000000     -0.252148904433  0.000000000000     -0.259126959389  0.000000000000
   7   1 -0.090536275486  0.000000000000     -0.147539731253  0.000000000000      0.278028010855  0.000000000000
   7   2  0.200564605706  0.000000000000      0.083689318564  0.000000000000     -0.309039758929  0.000000000000
   7   3 -0.200564605706  0.000000000000      0.083689318564  0.000000000000      0.309039758929  0.000000000000
   7   4  0.090536275485  0.000000000000     -0.147539731253  0.000000000000     -0.278028010856  0.000000000000
   7   5  0.200564605706  0.000000000000     -0.083689318564  0.000000000000      0.309039758929  0.000000000000
   7   6 -0.090536275485  0.000000000000      0.147539731253  0.000000000000     -0.278028010856  0.000000000000
   7   7 -0.200564605706  0.000000000000     -0.083689318564  0.000000000000     -0.309039758929  0.000000000000
   7   8  0.090536275485  0.000000000000      0.147539731253  0.000000000000      0.278028010855  0.000000000000
   8   1 -0.252687214909  0.000000000000      0.235746062383  0.000000000000     -0.020960380368  0.000000000000
   8   2  0.252689329462  0.000000000000     -0.257260103302  0.000000000000     -0.009948365314  0.000000000000
   8   3  0.252689329462  0.000000000000      0.257260103302  0.000000000000     -0.009948365314  0.000000000000
   8   4 -0.252687214909  0.000000000000     -0.235746062383  0.000000000000     -0.020960380368  0.000000000000
   8   5  0.252689329462  0.000000000000      0.257260103302  0.000000000000      0.009948365314  0.000000000000
   8   6 -0.252687214909  0.000000000000     -0.235746062382  0.000000000000      0.020960380368  0.000000000000
   8   7  0.252689329462  0.000000000000     -0.257260103302  0.000000000000      0.009948365314  0.000000000000
   8   8 -0.252687214909  0.000000000000      0.235746062382  0.000000000000      0.020960380368  0.000000000000
   9   1 -0.091945970605  0.000000000000      0.228833805346  0.000000000000      0.239810601787  0.000000000000
   9   2  0.234055517690  0.000000000000     -0.103071257524  0.000000000000      0.257422286918  0.000000000000
   9   3 -0.234055517690  0.000000000000     -0.103071257524  0.000000000000     -0.257422286918  0.000000000000
   9   4  0.091945970605  0.000000000000      0.228833805346  0.000000000000     -0.239810601787  0.000000000000
   9   5  0.234055517690  0.000000000000      0.103071257524  0.000000000000     -0.257422286918  0.000000000000
   9   6 -0.091945970605  0.000000000000     -0.228833805346  0.000000000000     -0.239810601787  0.000000000000
   9   7 -0.234055517690  0.000000000000      0.103071257524  0.000000000000      0.257422286918  0.000000000000
   9   8  0.091945970605  0.000000000000     -0.228833805346  0.000000000000      0.239810601787  0.000000000000
  10   1 -0.045338906550  0.000000000000     -0.386876752766  0.000000000000      0.105235746179  0.000000000000
  10   2  0.045345394802  0.000000000000     -0.269719964381  0.000000000000     -0.111315477058  0.000000000000
  10   3  0.045345394802  0.000000000000      0.269719964381  0.000000000000     -0.111315477058  0.000000000000
  10   4 -0.045338906550  0.000000000000      0.386876752766  0.000000000000      0.105235746179  0.000000000000
  10   5  0.045345394802  0.000000000000      0.269719964381  0.000000000000      0.111315477058  0.000000000000
  10   6 -0.045338906550  0.000000000000      0.386876752766  0.000000000000     -0.105235746179  0.000000000000
  10   7  0.045345394802  0.000000000000     -0.269719964381  0.000000000000      0.111315477058  0.000000000000
  10   8 -0.045338906550  0.000000000000     -0.386876752766  0.000000000000     -0.105235746179  0.000000000000
  11   1  0.115946898525  0.000000000000     -0.261732545656  0.000000000000      0.261518493260  0.000000000000
  11   2 -0.175618704498  0.000000000000      0.261718159337  0.000000000000     -0.017948388601  0.000000000000
  11   3  0.175618704498  0.000000000000      0.261718159337  0.000000000000      0.017948388601  0.000000000000
  11   4 -0.115946898525  0.000000000000     -0.261732545656  0.000000000000     -0.261518493260  0.000000000000
  11   5  0.175618704498  0.000000000000      0.261718159337  0.000000000000     -0.017948388601  0.000000000000
  11   6 -0.115946898525  0.000000000000     -0.261732545656  0.000000000000      0.261518493260  0.000000000000
  11   7 -0.175618704498  0.000000000000      0.261718159337  0.000000000000      0.017948388601  0.000000000000
  11   8  0.115946898525  0.000000000000     -0.261732545656  0.000000000000     -0.261518493260  0.000000000000
  12   1 -0.361027013969  0.000000000000     -0.030416636697  0.000000000000      0.010317857386  0.000000000000
  12   2 -0.343005757164  0.000000000000     -0.029482929198  0.000000000000     -0.010279720532  0.000000000000
  12   3 -0.343005757164  0.000000000000      0.029482929198  0.000000000000     -0.010279720532  0.000000000000
  12   4 -0.361027013969  0.000000000000      0.030416636697  0.000000000000      0.010317857386  0.000000000000
  12   5  0.343005757164  0.000000000000     -0.029482929198  0.000000000000     -0.010279720532  0.000000000000
  12   6  0.361027013969  0.000000000000     -0.030416636697  0.000000000000      0.010317857386  0.000000000000
  12   7  0.343005757164  0.000000000000      0.029482929198  0.000000000000     -0.010279720532  0.000000000000
  12   8  0.361027013969  0.000000000000      0.030416636697  0.000000000000      0.010317857386  0.000000000000
  13   1 -0.130261691758  0.000000000000     -0.118526056343  0.000000000000     -0.144082306474  0.000000000000
  13   2  0.111008724861  0.000000000000     -0.424106420822  0.000000000000     -0.077682439528  0.000000000000
  13   3 -0.111008724861  0.000000000000     -0.424106420822  0.000000000000      0.077682439528  0.000000000000
  13   4  0.130261691758  0.000000000000     -0.118526056343  0.000000000000      0.144082306474  0.000000000000
  13   5  0.111008724861  0.000000000000      0.424106420822  0.000000000000      0.077682439528  0.000000000000
  13   6 -0.130261691758  0.000000000000      0.118526056343  0.000000000000      0.144082306474  0.000000000000
  13   7 -0.111008724861  0.000000000000      0.424106420822  0.000000000000     -0.077682439528  0.000000000000
  13   8  0.130261691758  0.000000000000      0.118526056343  0.000000000000     -0.144082306474  0.000000000000
  14   1  0.132422307996  0.000000000000     -0.007158162133  0.000000000000     -0.280925126670  0.000000000000
  14   2 -0.132406756356  0.000000000000     -0.254125569943  0.000000000000      0.267175619842  0.000000000000
  14   3 -0.132406756356  0.000000000000      0.254125569943  0.000000000000      0.267175619842  0.000000000000
  14   4  0.132422307996  0.000000000000      0.007158162133  0.000000000000     -0.280925126670  0.000000000000
  14   5 -0.132406756356  0.000000000000      0.254125569943  0.000000000000     -0.267175619842  0.000000000000
  14   6  0.132422307996  0.000000000000      0.007158162133  0.000000000000      0.280925126670  0.000000000000
  14   7 -0.132406756356  0.000000000000     -0.254125569943  0.000000000000     -0.267175619842  0.000000000000
  14   8  0.132422307996  0.000000000000     -0.007158162133  0.000000000000      0.280925126670  0.000000000000
  15   1 -0.102941018581  0.000000000000      0.339094490424  0.000000000000     -0.222894846523  0.000000000000
  15   2  0.136809624793  0.000000000000      0.088585734095  0.000000000000     -0.219480420380  0.000000000000
  15   3 -0.136809624793  0.000000000000      0.088585734095  0.000000000000      0.219480420380  0.000000000000
  15   4  0.102941018581  0.000000000000      0.339094490424  0.000000000000      0.222894846523  0.000000000000
  15   5  0.136809624793  0.000000000000     -0.088585734095  0.000000000000      0.219480420380  0.000000000000
  15   6 -0.102941018581  0.000000000000     -0.339094490424  0.000000000000      0.222894846523  0.000000000000
  15   7 -0.136809624793  0.000000000000     -0.088585734095  0.000000000000     -0.219480420380  0.000000000000
  15   8  0.102941018581  0.000000000000     -0.339094490424  0.000000000000     -0.222894846523  0.000000000000
  16   1 -0.037546239615  0.000000000000      0.347432882786  0.000000000000      0.013954782878  0.000000000000
  16   2 -0.021088224162  0.000000000000      0.356434137786  0.000000000000     -0.013997432172  0.000000000000
  16   3 -0.021088224162  0.000000000000     -0.356434137786  0.000000000000     -0.013997432172  0.000000000000
  16   4 -0.037546239615  0.000000000000     -0.347432882786  0.000000000000      0.013954782878  0.000000000000
  16   5  0.021088224162  0.000000000000      0.356434137786  0.000000000000     -0.013997432172  0.000000000000
  16   6  0.037546239615  0.000000000000      0.347432882786  0.000000000000      0.013954782878  0.000000000000
  16   7  0.021088224162  0.000000000000     -0.356434137786  0.000000000000     -0.013997432172  0.000000000000
  16   8  0.037546239615  0.000000000000     -0.347432882786  0.000000000000      0.013954782878  0.000000000000
  17   1  0.014271538059  0.000000000000      0.091172885044  0.000000000000      0.294157358500  0.000000000000
  17   2  0.139148046090  0.000000000000     -0.091240862495  0.000000000000      0.356746692984  0.000000000000
  17   3 -0.139148046090  0.000000000000     -0.091240862495  0.000000000000     -0.356746692984  0.000000000000
  17   4 -0.014271538059  0.000000000000      0.091172885044  0.000000000000     -0.294157358500  0.000000000000
  17   5 -0.139148046090  0.000000000000     -0.091240862495  0.000000000000      0.356746692984  0.000000000000
  17   6 -0.014271538059  0.000000000000      0.091172885044  0.000000000000      0.294157358500  0.000000000000
  17   7  0.139148046090  0.000000000000     -0.091240862495  0.000000000000     -0.356746692984  0.000000000000
  17   8  0.014271538059  0.000000000000      0.091172885044  0.000000000000     -0.294157358500  0.000000000000
  18   1 -0.401091080294  0.000000000000      0.044237808028  0.000000000000      0.087925348259  0.000000000000
  18   2 -0.281682945272  0.000000000000      0.008165188590  0.000000000000     -0.005113005123  0.000000000000
  18   3  0.281682945272  0.000000000000      0.008165188590  0.000000000000      0.005113005123  0.000000000000
  18   4  0.401091080294  0.000000000000      0.044237808028  0.000000000000     -0.087925348259  0.000000000000
  18   5 -0.281682945272  0.000000000000     -0.008165188590  0.000000000000      0.005113005123  0.000000000000
  18   6 -0.401091080294  0.000000000000     -0.044237808028  0.000000000000     -0.087925348259  0.000000000000
  18   7  0.281682945272  0.000000000000     -0.008165188590  0.000000000000     -0.005113005123  0.000000000000
  18   8  0.401091080294  0.000000000000     -0.044237808028  0.000000000000      0.087925348259  0.000000000000
  19   1  0.345190678873  0.000000000000     -0.044282929420  0.000000000000     -0.021007100463  0.000000000000
  19   2  0.339406631591  0.000000000000      0.044242224396  0.000000000000     -0.106239743617  0.000000000000
  19   3 -0.339406631591  0.000000000000      0.044242224396  0.000000000000      0.106239743617  0.000000000000
  19   4 -0.345190678873  0.000000000000     -0.044282929420  0.000000000000      0.021007100463  0.000000000000
  19   5 -0.339406631591  0.000000000000      0.044242224396  0.000000000000     -0.106239743617  0.000000000000
  19   6 -0.345190678873  0.000000000000     -0.044282929420  0.000000000000     -0.021007100463  0.000000000000
  19   7  0.339406631591  0.000000000000      0.044242224396  0.000000000000      0.106239743617  0.000000000000
  19   8  0.345190678873  0.000000000000     -0.044282929420  0.000000000000      0.021007100463  0.000000000000
  20   1  0.009062913027  0.000000000000     -0.006686972139  0.000000000000     -0.348343132806  0.000000000000
  20   2 -0.008988187463  0.000000000000      0.018364566954  0.000000000000     -0.357927597434  0.000000000000
  20   3 -0.008988187463  0.000000000000     -0.018364566954  0.000000000000     -0.357927597434  0.000000000000
  20   4  0.009062913027  0.000000000000      0.006686972139  0.000000000000     -0.348343132806  0.000000000000
  20   5 -0.008988187463  0.000000000000     -0.018364566954  0.000000000000      0.357927597434  0.000000000000
  20   6  0.009062913027  0.000000000000      0.006686972139  0.000000000000      0.348343132806  0.000000000000
  20   7 -0.008988187463  0.000000000000      0.018364566954  0.000000000000      0.357927597434  0.000000000000
  20   8  0.009062913027  0.000000000000     -0.006686972139  0.000000000000      0.348343132806  0.000000000000
  21   1 -0.206125711029 -0.000000000000     -0.215337656992 -0.000000000000     -0.190134300020 -0.000000000000
  21   2  0.206127812789 -0.000000000000      0.215292753499 -0.000000000000      0.190134656955 -0.000000000000
  21   3  0.206127812789 -0.000000000000     -0.215292753499 -0.000000000000      0.190134656955 -0.000000000000
  21   4 -0.206125711029 -0.000000000000      0.215337656992 -0.000000000000     -0.190134300020 -0.000000000000
  21   5 -0.206127812789 -0.000000000000      0.215292753499 -0.000000000000      0.190134656955 -0.000000000000
  21   6  0.206125711029 -0.000000000000     -0.215337656992 -0.000000000000     -0.190134300020 -0.000000000000
  21   7 -0.206127812789 -0.000000000000     -0.215292753499 -0.000000000000      0.190134656955 -0.000000000000
  21   8  0.206125711029 -0.000000000000      0.215337656992 -0.000000000000     -0.190134300020 -0.000000000000
  22   1 -0.203661220403  0.000000000000     -0.211315445123  0.000000000000     -0.195510187634  0.000000000000
  22   2  0.203660065926  0.000000000000      0.214828576759  0.000000000000      0.194974143522  0.000000000000
  22   3  0.203660065926  0.000000000000     -0.214828576759  0.000000000000      0.194974143523  0.000000000000
  22   4 -0.203661220403  0.000000000000      0.211315445123  0.000000000000     -0.195510187634  0.000000000000
  22   5  0.203660065926  0.000000000000     -0.214828576759  0.000000000000     -0.194974143523  0.000000000000
  22   6 -0.203661220403  0.000000000000      0.211315445123  0.000000000000      0.195510187634  0.000000000000
  22   7  0.203660065926  0.000000000000      0.214828576759  0.000000000000     -0.194974143523  0.000000000000
  22   8 -0.203661220403  0.000000000000     -0.211315445123  0.000000000000      0.195510187634  0.000000000000
  23   1 -0.211920043822  0.000000000000     -0.211841058593  0.000000000000     -0.192402208766  0.000000000000
  23   2  0.211203128501  0.000000000000      0.211168309786  0.000000000000      0.184379593329  0.000000000000
  23   3 -0.211203128501  0.000000000000      0.211168309786  0.000000000000     -0.184379593329  0.000000000000
  23   4  0.211920043822  0.000000000000     -0.211841058593  0.000000000000      0.192402208766  0.000000000000
  23   5  0.211203128501  0.000000000000     -0.211168309786  0.000000000000     -0.184379593329  0.000000000000
  23   6 -0.211920043822  0.000000000000      0.211841058593  0.000000000000      0.192402208766  0.000000000000
  23   7 -0.211203128501  0.000000000000     -0.211168309786  0.000000000000      0.184379593329  0.000000000000
  23   8  0.211920043822  0.000000000000      0.211841058593  0.000000000000     -0.192402208766  0.000000000000
  24   1 -0.209196458937  0.000000000000     -0.214979230054  0.000000000000     -0.186533106380  0.000000000000
  24   2  0.205256417097  0.000000000000      0.214979968323  0.000000000000      0.192040591797  0.000000000000
  24   3 -0.205256417097  0.000000000000      0.214979968323  0.000000000000     -0.192040591797  0.000000000000
  24   4  0.209196458937  0.000000000000     -0.214979230054  0.000000000000      0.186533106380  0.000000000000
  24   5 -0.205256417097  0.000000000000      0.214979968323  0.000000000000      0.192040591797  0.000000000000
  24   6  0.209196458937  0.000000000000     -0.214979230054  0.000000000000     -0.186533106380  0.000000000000
  24   7  0.205256417097  0.000000000000      0.214979968323  0.000000000000     -0.192040591797  0.000000000000
  24   8 -0.209196458937  0.000000000000     -0.214979230054  0.000000000000      0.186533106380  0.000000000000
