 BEGIN header
 Number of ions         8
 Number of branches     24
 Number of wavevectors  1
 Frequencies in         cm-1
 IR intensities in      (D/A)**2/amu
 Raman activities in    A**4 amu**(-1)
 Unit cell vectors (A)
    3.762864    0.000000    0.000000
    0.000000    2.185384    0.000000
    0.000000    0.000000    3.506965
 Fractional Co-ordinates
     1     0.360066    0.148931    0.381589   H         1.007825
     2     0.472746    0.354776    0.497311   H         1.007825
     3     0.972746    0.645224    0.497311   H         1.007825
     4     0.860066    0.851069    0.381589   H         1.007825
     5     0.027254    0.354776    0.997311   H         1.007825
     6     0.139934    0.148931    0.881589   H         1.007825
     7     0.527254    0.645224    0.997311   H         1.007825
     8     0.639934    0.851069    0.881589   H         1.007825
 END header
     q-pt=    1    0.000000  0.000000  0.000000      1.0000000000
       1      -0.172531              0.0000000               0.0000000          
       2      -0.140871              0.0000000               0.0000000          
       3      -0.099611              0.0000000               0.0000000          
       4     242.938514              0.0188474              39.7924609          
       5     312.316221              0.0049870             172.6402031          
       6     345.011662              0.0000000              45.5090422          
       7     348.278123              0.0026274             195.4203078          
       8     422.091623              0.0900539              29.6953585          
       9     476.870955              0.0000000               0.3041186          
      10     488.869659              0.2887244               6.4364362          
      11     558.200234              0.2899333               1.4396992          
      12     568.217211              0.0196678              13.2188809          
      13     576.622077              0.0000000               3.7017371          
      14     601.850934              0.0408099               8.7180514          
      15     619.575025              0.0000000               0.3622106          
      16     745.295867              0.3343976               0.7928620          
      17     802.929176              0.3089431               0.1667315          
      18     897.254068              0.0000000               3.3285292          
      19     975.787760              0.2283105               0.0091457          
      20    1031.920237              0.1889617               0.1249369          
      21    4292.400533              0.0404484            5389.9526599          
      22    4399.401106              0.0022069              72.5714751          
      23    4403.152058              0.0000000             109.4241455          
      24    4435.964292              0.0218814              82.8717632          
                        Phonon Eigenvectors
Mode Ion                X                                   Y                                   Z
   1   1 -0.000027802809  0.000000000000     -0.000071289899  0.000000000000     -0.353559449010  0.000000000000
   1   2 -0.000043506570  0.000000000000     -0.000066896522  0.000000000000     -0.353547314776  0.000000000000
   1   3 -0.000043506575  0.000000000000      0.000066909907  0.000000000000     -0.353547314772  0.000000000000
   1   4 -0.000027802805  0.000000000000      0.000071303283  0.000000000000     -0.353559449016  0.000000000000
   1   5  0.000043542068  0.000000000000     -0.000066896527  0.000000000000     -0.353547314779  0.000000000000
   1   6  0.000027838313  0.000000000000     -0.000071289899  0.000000000000     -0.353559449013  0.000000000000
   1   7  0.000043542072  0.000000000000      0.000066909912  0.000000000000     -0.353547314776  0.000000000000
   1   8  0.000027838309  0.000000000000      0.000071303283  0.000000000000     -0.353559449019  0.000000000000
   2   1  0.353581693252  0.000000000000     -0.000000039668  0.000000000000      0.000026935832  0.000000000000
   2   2  0.353525079948  0.000000000000      0.000046030940  0.000000000000      0.000034718098  0.000000000000
   2   3  0.353525079948  0.000000000000     -0.000046028912  0.000000000000      0.000034718098  0.000000000000
   2   4  0.353581693252  0.000000000000      0.000000041696  0.000000000000      0.000026935831  0.000000000000
   2   5  0.353525079943  0.000000000000     -0.000046028906  0.000000000000     -0.000034682599  0.000000000000
   2   6  0.353581693249  0.000000000000      0.000000041703  0.000000000000     -0.000026900330  0.000000000000
   2   7  0.353525079944  0.000000000000      0.000046030933  0.000000000000     -0.000034682598  0.000000000000
   2   8  0.353581693249  0.000000000000     -0.000000039675  0.000000000000     -0.000026900331  0.000000000000
   3   1 -0.000102942079  0.000000000000      0.353542786906  0.000000000000      0.000167630957  0.000000000000
   3   2  0.000123102512  0.000000000000      0.353563905246  0.000000000000     -0.000094259269  0.000000000000
   3   3 -0.000123104538  0.000000000000      0.353563905244  0.000000000000      0.000094272653  0.000000000000
   3   4  0.000102940052  0.000000000000      0.353542786903  0.000000000000     -0.000167617572  0.000000000000
   3   5 -0.000123104539  0.000000000000      0.353563905247  0.000000000000     -0.000094259269  0.000000000000
   3   6  0.000102940051  0.000000000000      0.353542786906  0.000000000000      0.000167630957  0.000000000000
   3   7  0.000123102510  0.000000000000      0.353563905244  0.000000000000      0.000094272653  0.000000000000
   3   8 -0.000102942080  0.000000000000      0.353542786903  0.000000000000     -0.000167617572  0.000000000000
   4   1  0.271546859913  0.000000000000      0.000205593822  0.000000000000     -0.240299771415  0.000000000000
   4   2 -0.213707760115  0.000000000000      0.000133774859  0.000000000000      0.269902307940  0.000000000000
   4   3  0.213707760115  0.000000000000      0.000133774859  0.000000000000     -0.269902307940  0.000000000000
   4   4 -0.271546859913  0.000000000000      0.000205593822  0.000000000000      0.240299771415  0.000000000000
   4   5  0.213707760115  0.000000000000      0.000133774859  0.000000000000      0.269902307940  0.000000000000
   4   6 -0.271546859913  0.000000000000      0.000205593822  0.000000000000     -0.240299771415  0.000000000000
   4   7 -0.213707760115  0.000000000000      0.000133774859  0.000000000000     -0.269902307940  0.000000000000
   4   8  0.271546859913  0.000000000000      0.000205593822  0.000000000000      0.240299771415  0.000000000000
   5   1  0.292848142380  0.000000000000     -0.120170405756  0.000000000000     -0.158510009850  0.000000000000
   5   2 -0.284165386836  0.000000000000      0.137088501884  0.000000000000      0.158525680690  0.000000000000
   5   3 -0.284165386836  0.000000000000     -0.137088501884  0.000000000000      0.158525680690  0.000000000000
   5   4  0.292848142380  0.000000000000      0.120170405756  0.000000000000     -0.158510009850  0.000000000000
   5   5  0.284165386836  0.000000000000      0.137088501884  0.000000000000      0.158525680690  0.000000000000
   5   6 -0.292848142380  0.000000000000     -0.120170405756  0.000000000000     -0.158510009850  0.000000000000
   5   7  0.284165386836  0.000000000000     -0.137088501884  0.000000000000      0.158525680690  0.000000000000
   5   8 -0.292848142380  0.000000000000      0.120170405756  0.000000000000     -0.158510009850  0.000000000000
   6   1  0.098692551973  0.000000000000      0.152647944558  0.000000000000     -0.279127912786  0.000000000000
   6   2 -0.194323998381  0.000000000000     -0.092397260048  0.000000000000      0.304543795702  0.000000000000
   6   3  0.194323998381  0.000000000000     -0.092397260047  0.000000000000     -0.304543795701  0.000000000000
   6   4 -0.098692551973  0.000000000000      0.152647944557  0.000000000000      0.279127912785  0.000000000000
   6   5 -0.194323998381  0.000000000000      0.092397260047  0.000000000000     -0.304543795701  0.000000000000
   6   6  0.098692551973  0.000000000000     -0.152647944557  0.000000000000      0.279127912785  0.000000000000
   6   7  0.194323998381  0.000000000000      0.092397260048  0.000000000000      0.304543795702  0.000000000000
   6   8 -0.098692551973  0.000000000000     -0.152647944558  0.000000000000     -0.279127912786  0.000000000000
   7   1 -0.050229648379  0.000000000000      0.255849679764  0.000000000000     -0.248737017867  0.000000000000
   7   2  0.001095608695  0.000000000000     -0.241398656123  0.000000000000      0.248743458596  0.000000000000
   7   3  0.001095608695  0.000000000000      0.241398656123  0.000000000000      0.248743458596  0.000000000000
   7   4 -0.050229648378  0.000000000000     -0.255849679764  0.000000000000     -0.248737017867  0.000000000000
   7   5 -0.001095608695  0.000000000000     -0.241398656123  0.000000000000      0.248743458596  0.000000000000
   7   6  0.050229648378  0.000000000000      0.255849679764  0.000000000000     -0.248737017867  0.000000000000
   7   7 -0.001095608695  0.000000000000      0.241398656123  0.000000000000      0.248743458596  0.000000000000
   7   8  0.050229648379  0.000000000000     -0.255849679764  0.000000000000     -0.248737017867  0.000000000000
   8   1 -0.259216525189  0.000000000000      0.206181900611  0.000000000000     -0.009204166690  0.000000000000
   8   2  0.259295964548  0.000000000000     -0.269255653295  0.000000000000     -0.021865410639  0.000000000000
   8   3  0.259295964548  0.000000000000      0.269255653295  0.000000000000     -0.021865410639  0.000000000000
   8   4 -0.259216525189  0.000000000000     -0.206181900611  0.000000000000     -0.009204166690  0.000000000000
   8   5  0.259295964548  0.000000000000      0.269255653295  0.000000000000      0.021865410639  0.000000000000
   8   6 -0.259216525189  0.000000000000     -0.206181900611  0.000000000000      0.009204166690  0.000000000000
   8   7  0.259295964548  0.000000000000     -0.269255653295  0.000000000000      0.021865410639  0.000000000000
   8   8 -0.259216525189  0.000000000000      0.206181900611  0.000000000000      0.009204166690  0.000000000000
   9   1 -0.102496968896  0.000000000000      0.221430536336  0.000000000000      0.254339825444  0.000000000000
   9   2  0.216379515480  0.000000000000     -0.092072924149  0.000000000000      0.265474337850  0.000000000000
   9   3 -0.216379515480  0.000000000000     -0.092072924149  0.000000000000     -0.265474337850  0.000000000000
   9   4  0.102496968896  0.000000000000      0.221430536336  0.000000000000     -0.254339825444  0.000000000000
   9   5  0.216379515480  0.000000000000      0.092072924149  0.000000000000     -0.265474337850  0.000000000000
   9   6 -0.102496968896  0.000000000000     -0.221430536336  0.000000000000     -0.254339825444  0.000000000000
   9   7 -0.216379515480  0.000000000000      0.092072924149  0.000000000000      0.265474337850  0.000000000000
   9   8  0.102496968896  0.000000000000     -0.221430536336  0.000000000000      0.254339825444  0.000000000000
  10   1 -0.018676525083  0.000000000000     -0.402010779575  0.000000000000      0.089056074631  0.000000000000
  10   2  0.018716401639  0.000000000000     -0.267532640406  0.000000000000     -0.090462802934  0.000000000000
  10   3  0.018716401639  0.000000000000      0.267532640406  0.000000000000     -0.090462802934  0.000000000000
  10   4 -0.018676525083  0.000000000000      0.402010779575  0.000000000000      0.089056074631  0.000000000000
  10   5  0.018716401639  0.000000000000      0.267532640406  0.000000000000      0.090462802934  0.000000000000
  10   6 -0.018676525083  0.000000000000      0.402010779575  0.000000000000     -0.089056074631  0.000000000000
  10   7  0.018716401639  0.000000000000     -0.267532640406  0.000000000000      0.090462802934  0.000000000000
  10   8 -0.018676525083  0.000000000000     -0.402010779575  0.000000000000     -0.089056074631  0.000000000000
  11   1  0.345978520057  0.000000000000      0.044246640701  0.000000000000     -0.014762162447  0.000000000000
  11   2  0.357575848187  0.000000000000      0.006866739927  0.000000000000      0.014681201641  0.000000000000
  11   3  0.357575848187  0.000000000000     -0.006866739927  0.000000000000      0.014681201641  0.000000000000
  11   4  0.345978520057  0.000000000000     -0.044246640701  0.000000000000     -0.014762162447  0.000000000000
  11   5 -0.357575848187  0.000000000000      0.006866739927  0.000000000000      0.014681201641  0.000000000000
  11   6 -0.345978520057  0.000000000000      0.044246640701  0.000000000000     -0.014762162447  0.000000000000
  11   7 -0.357575848188  0.000000000000     -0.006866739927  0.000000000000      0.014681201641  0.000000000000
  11   8 -0.345978520057  0.000000000000     -0.044246640701  0.000000000000     -0.014762162447  0.000000000000
  12   1 -0.116993896077  0.000000000000      0.264502262000  0.000000000000     -0.255664635719  0.000000000000
  12   2  0.174008753801  0.000000000000     -0.264452492383  0.000000000000      0.027792239802  0.000000000000
  12   3 -0.174008753801  0.000000000000     -0.264452492383  0.000000000000     -0.027792239802  0.000000000000
  12   4  0.116993896078  0.000000000000      0.264502262000  0.000000000000      0.255664635719  0.000000000000
  12   5 -0.174008753801  0.000000000000     -0.264452492383  0.000000000000      0.027792239802  0.000000000000
  12   6  0.116993896078  0.000000000000      0.264502262000  0.000000000000     -0.255664635719  0.000000000000
  12   7  0.174008753801  0.000000000000     -0.264452492383  0.000000000000     -0.027792239802  0.000000000000
  12   8 -0.116993896078  0.000000000000      0.264502262000  0.000000000000      0.255664635719  0.000000000000
  13   1  0.098113294330  0.000000000000      0.202570480279  0.000000000000      0.073605075853  0.000000000000
  13   2 -0.080473068889  0.000000000000      0.432720956495  0.000000000000      0.014068894681  0.000000000000
  13   3  0.080473068889  0.000000000000      0.432720956495  0.000000000000     -0.014068894681  0.000000000000
  13   4 -0.098113294330  0.000000000000      0.202570480279  0.000000000000     -0.073605075853  0.000000000000
  13   5 -0.080473068889  0.000000000000     -0.432720956495  0.000000000000     -0.014068894681  0.000000000000
  13   6  0.098113294330  0.000000000000     -0.202570480279  0.000000000000     -0.073605075853  0.000000000000
  13   7  0.080473068889  0.000000000000     -0.432720956495  0.000000000000      0.014068894681  0.000000000000
  13   8 -0.098113294330  0.000000000000     -0.202570480279  0.000000000000      0.073605075853  0.000000000000
  14   1 -0.130791056740  0.000000000000     -0.025988766297  0.000000000000      0.285278756357  0.000000000000
  14   2  0.130785176550  0.000000000000      0.244306490661  0.000000000000     -0.272110071277  0.000000000000
  14   3  0.130785176550  0.000000000000     -0.244306490661  0.000000000000     -0.272110071277  0.000000000000
  14   4 -0.130791056740  0.000000000000      0.025988766297  0.000000000000      0.285278756357  0.000000000000
  14   5  0.130785176550  0.000000000000     -0.244306490661  0.000000000000      0.272110071277  0.000000000000
  14   6 -0.130791056740  0.000000000000      0.025988766297  0.000000000000     -0.285278756357  0.000000000000
  14   7  0.130785176550  0.000000000000      0.244306490661  0.000000000000      0.272110071277  0.000000000000
  14   8 -0.130791056740  0.000000000000     -0.025988766297  0.000000000000     -0.285278756357  0.000000000000
  15   1 -0.146598387747  0.000000000000      0.300623980425  0.000000000000     -0.241273050187  0.000000000000
  15   2  0.169921104814  0.000000000000     -0.027561252323  0.000000000000     -0.224251300700  0.000000000000
  15   3 -0.169921104814  0.000000000000     -0.027561252323  0.000000000000      0.224251300700  0.000000000000
  15   4  0.146598387747  0.000000000000      0.300623980425  0.000000000000      0.241273050187  0.000000000000
  15   5  0.169921104814  0.000000000000      0.027561252323  0.000000000000      0.224251300700  0.000000000000
  15   6 -0.146598387747  0.000000000000     -0.300623980425  0.000000000000      0.241273050187  0.000000000000
  15   7 -0.169921104814  0.000000000000      0.027561252323  0.000000000000     -0.224251300700  0.000000000000
  15   8  0.146598387747  0.000000000000     -0.300623980425  0.000000000000     -0.241273050187  0.000000000000
  16   1 -0.031300002082  0.000000000000      0.348860497981  0.000000000000      0.009699616288  0.000000000000
  16   2 -0.018916544423  0.000000000000      0.356045023819  0.000000000000     -0.009832884747  0.000000000000
  16   3 -0.018916544423  0.000000000000     -0.356045023819  0.000000000000     -0.009832884747  0.000000000000
  16   4 -0.031300002082  0.000000000000     -0.348860497981  0.000000000000      0.009699616288  0.000000000000
  16   5  0.018916544423  0.000000000000      0.356045023819  0.000000000000     -0.009832884747  0.000000000000
  16   6  0.031300002082  0.000000000000      0.348860497981  0.000000000000      0.009699616288  0.000000000000
  16   7  0.018916544423  0.000000000000     -0.356045023819  0.000000000000     -0.009832884747  0.000000000000
  16   8  0.031300002082  0.000000000000     -0.348860497981  0.000000000000      0.009699616288  0.000000000000
  17   1  0.001914009859  0.000000000000      0.086380754591  0.000000000000      0.299826267552  0.000000000000
  17   2  0.121423846418  0.000000000000     -0.086463177517  0.000000000000      0.361136095597  0.000000000000
  17   3 -0.121423846418  0.000000000000     -0.086463177517  0.000000000000     -0.361136095597  0.000000000000
  17   4 -0.001914009859  0.000000000000      0.086380754591  0.000000000000     -0.299826267552  0.000000000000
  17   5 -0.121423846418  0.000000000000     -0.086463177517  0.000000000000      0.361136095597  0.000000000000
  17   6 -0.001914009859  0.000000000000      0.086380754591  0.000000000000      0.299826267552  0.000000000000
  17   7  0.121423846418  0.000000000000     -0.086463177517  0.000000000000     -0.361136095597  0.000000000000
  17   8  0.001914009859  0.000000000000      0.086380754591  0.000000000000     -0.299826267552  0.000000000000
  18   1 -0.394964823193  0.000000000000      0.030711059245  0.000000000000      0.074327958825  0.000000000000
  18   2 -0.295708952288  0.000000000000      0.007722419178  0.000000000000     -0.005617258787  0.000000000000
  18   3  0.295708952288  0.000000000000      0.007722419178  0.000000000000      0.005617258787  0.000000000000
  18   4  0.394964823193  0.000000000000      0.030711059245  0.000000000000     -0.074327958825  0.000000000000
  18   5 -0.295708952288  0.000000000000     -0.007722419178  0.000000000000      0.005617258787  0.000000000000
  18   6 -0.394964823193  0.000000000000     -0.030711059245  0.000000000000     -0.074327958825  0.000000000000
  18   7  0.295708952288  0.000000000000     -0.007722419178  0.000000000000     -0.005617258787  0.000000000000
  18   8  0.394964823193  0.000000000000     -0.030711059245  0.000000000000      0.074327958825  0.000000000000
  19   1  0.347270585021  0.000000000000     -0.038133866105  0.000000000000     -0.013094785605  0.000000000000
  19   2  0.344237537869  0.000000000000      0.038095461825  0.000000000000     -0.088468802045  0.000000000000
  19   3 -0.344237537869  0.000000000000      0.038095461825  0.000000000000      0.088468802045  0.000000000000
  19   4 -0.347270585021  0.000000000000     -0.038133866105  0.000000000000      0.013094785605  0.000000000000
  19   5 -0.344237537869  0.000000000000      0.038095461825  0.000000000000     -0.088468802045  0.000000000000
  19   6 -0.347270585021  0.000000000000     -0.038133866105  0.000000000000     -0.013094785605  0.000000000000
  19   7  0.344237537869  0.000000000000      0.038095461825  0.000000000000      0.088468802045  0.000000000000
  19   8  0.347270585021  0.000000000000     -0.038133866105  0.000000000000      0.013094785605  0.000000000000
  20   1  0.009132643753  0.000000000000     -0.008647330641  0.000000000000     -0.348311806456  0.000000000000
  20   2 -0.009074638369  0.000000000000      0.016824895448  0.000000000000     -0.357987817958  0.000000000000
  20   3 -0.009074638369  0.000000000000     -0.016824895448  0.000000000000     -0.357987817958  0.000000000000
  20   4  0.009132643753  0.000000000000      0.008647330641  0.000000000000     -0.348311806456  0.000000000000
  20   5 -0.009074638369  0.000000000000     -0.016824895448  0.000000000000      0.357987817958  0.000000000000
  20   6  0.009132643753  0.000000000000      0.008647330641  0.000000000000      0.348311806456  0.000000000000
  20   7 -0.009074638369  0.000000000000      0.016824895448  0.000000000000      0.357987817958  0.000000000000
  20   8  0.009132643753  0.000000000000     -0.008647330641  0.000000000000      0.348311806456  0.000000000000
  21   1 -0.202573741348  0.000000000000     -0.215496166083  0.000000000000     -0.194134450153  0.000000000000
  21   2  0.202559886976  0.000000000000      0.214751521283  0.000000000000      0.194134935749  0.000000000000
  21   3  0.202559886976  0.000000000000     -0.214751521283  0.000000000000      0.194134935749  0.000000000000
  21   4 -0.202573741348  0.000000000000      0.215496166083  0.000000000000     -0.194134450153  0.000000000000
  21   5 -0.202559886976  0.000000000000      0.214751521283  0.000000000000      0.194134935749  0.000000000000
  21   6  0.202573741348  0.000000000000     -0.215496166083  0.000000000000     -0.194134450153  0.000000000000
  21   7 -0.202559886976  0.000000000000     -0.214751521283  0.000000000000      0.194134935749  0.000000000000
  21   8  0.202573741348  0.000000000000      0.215496166083  0.000000000000     -0.194134450153  0.000000000000
  22   1 -0.200619692385  0.000000000000     -0.212429199182  0.000000000000     -0.198189845395  0.000000000000
  22   2  0.200619554036  0.000000000000      0.214380360297  0.000000000000      0.197836334383  0.000000000000
  22   3  0.200619554036  0.000000000000     -0.214380360297  0.000000000000      0.197836334384  0.000000000000
  22   4 -0.200619692385  0.000000000000      0.212429199182  0.000000000000     -0.198189845395  0.000000000000
  22   5  0.200619554036  0.000000000000     -0.214380360297  0.000000000000     -0.197836334383  0.000000000000
  22   6 -0.200619692385  0.000000000000      0.212429199182  0.000000000000      0.198189845395  0.000000000000
  22   7  0.200619554036  0.000000000000      0.214380360297  0.000000000000     -0.197836334384  0.000000000000
  22   8 -0.200619692385  0.000000000000     -0.212429199182  0.000000000000      0.198189845395  0.000000000000
  23   1 -0.206493666194  0.000000000000     -0.212871736859  0.000000000000     -0.195560282511  0.000000000000
  23   2  0.206458731453  0.000000000000      0.211940176457  0.000000000000      0.190416173639  0.000000000000
  23   3 -0.206458731453  0.000000000000      0.211940176457  0.000000000000     -0.190416173639  0.000000000000
  23   4  0.206493666194  0.000000000000     -0.212871736858  0.000000000000      0.195560282511  0.000000000000
  23   5  0.206458731453  0.000000000000     -0.211940176457  0.000000000000     -0.190416173639  0.000000000000
  23   6 -0.206493666194  0.000000000000      0.212871736859  0.000000000000      0.195560282511  0.000000000000
  23   7 -0.206458731453  0.000000000000     -0.211940176457  0.000000000000      0.190416173639  0.000000000000
  23   8  0.206493666194  0.000000000000      0.212871736858  0.000000000000     -0.195560282511  0.000000000000
  24   1 -0.204876054971 -0.000000000000     -0.214779380872 -0.000000000000     -0.191896643218 -0.000000000000
  24   2  0.202006679978 -0.000000000000      0.214779610314 -0.000000000000      0.195280101933 -0.000000000000
  24   3 -0.202006679978 -0.000000000000      0.214779610314 -0.000000000000     -0.195280101933 -0.000000000000
  24   4  0.204876054971 -0.000000000000     -0.214779380872 -0.000000000000      0.191896643218 -0.000000000000
  24   5 -0.202006679978 -0.000000000000      0.214779610314 -0.000000000000      0.195280101933 -0.000000000000
  24   6  0.204876054971 -0.000000000000     -0.214779380872 -0.000000000000     -0.191896643218 -0.000000000000
  24   7  0.202006679978 -0.000000000000      0.214779610314 -0.000000000000     -0.195280101933 -0.000000000000
  24   8 -0.204876054971 -0.000000000000     -0.214779380872 -0.000000000000      0.191896643218 -0.000000000000
     q-pt=    1    0.000000  0.000000  0.000000      1.0000000000    0.000000  0.000000  1.000000
       1      -0.170664              0.0000000                                  
       2      -0.140871              0.0000000                                  
       3      -0.099611              0.0000000                                  
       4     242.938514              0.0188474                                  
       5     312.492108              0.0045153                                  
       6     345.011662              0.0000000                                  
       7     348.361440              0.0023907                                  
       8     422.091623              0.0900539                                  
       9     476.870955              0.0000000                                  
      10     488.869659              0.2887244                                  
      11     563.998842              0.2720717                                  
      12     568.217211              0.0196678                                  
      13     576.622077              0.0000000                                  
      14     601.850934              0.0408099                                  
      15     619.575025              0.0000000                                  
      16     750.616352              0.3529017                                  
      17     802.929176              0.3089431                                  
      18     897.254068              0.0000000                                  
      19     975.787760              0.2283105                                  
      20    1031.920237              0.1889617                                  
      21    4292.509734              0.0405143                                  
      22    4399.401106              0.0022069                                  
      23    4403.152058              0.0000000                                  
      24    4435.964292              0.0218814                                  
                        Phonon Eigenvectors
Mode Ion                X                                   Y                                   Z
   1   1 -0.000024847272  0.000000000000     -0.000070376769  0.000000000000     -0.353559551800  0.000000000000
   1   2 -0.000042071818  0.000000000000     -0.000064682444  0.000000000000     -0.353547212993  0.000000000000
   1   3 -0.000042071821  0.000000000000      0.000064690157  0.000000000000     -0.353547212991  0.000000000000
   1   4 -0.000024847269  0.000000000000      0.000070384482  0.000000000000     -0.353559551804  0.000000000000
   1   5  0.000041994507  0.000000000000     -0.000064682434  0.000000000000     -0.353547212985  0.000000000000
   1   6  0.000024769948  0.000000000000     -0.000070376769  0.000000000000     -0.353559551794  0.000000000000
   1   7  0.000041994510  0.000000000000      0.000064690147  0.000000000000     -0.353547212983  0.000000000000
   1   8  0.000024769946  0.000000000000      0.000070384482  0.000000000000     -0.353559551798  0.000000000000
   2   1  0.353581693253  0.000000000000     -0.000000059641  0.000000000000      0.000026879413  0.000000000000
   2   2  0.353525079935  0.000000000000      0.000046010967  0.000000000000      0.000034661695  0.000000000000
   2   3  0.353525079948  0.000000000000     -0.000046048865  0.000000000000      0.000034661685  0.000000000000
   2   4  0.353581693242  0.000000000000      0.000000021745  0.000000000000      0.000026879431  0.000000000000
   2   5  0.353525079957  0.000000000000     -0.000046048879  0.000000000000     -0.000034739001  0.000000000000
   2   6  0.353581693248  0.000000000000      0.000000021730  0.000000000000     -0.000026956749  0.000000000000
   2   7  0.353525079944  0.000000000000      0.000046010981  0.000000000000     -0.000034739011  0.000000000000
   2   8  0.353581693259  0.000000000000     -0.000000059626  0.000000000000     -0.000026956732  0.000000000000
   3   1 -0.000102922115 -0.000000000000      0.353542786906 -0.000000000000      0.000167628122 -0.000000000000
   3   2  0.000123122472 -0.000000000000      0.353563905248 -0.000000000000     -0.000094262102 -0.000000000000
   3   3 -0.000123084578 -0.000000000000      0.353563905242 -0.000000000000      0.000094269819 -0.000000000000
   3   4  0.000102960015 -0.000000000000      0.353542786904 -0.000000000000     -0.000167620406 -0.000000000000
   3   5 -0.000123084579 -0.000000000000      0.353563905244 -0.000000000000     -0.000094262106 -0.000000000000
   3   6  0.000102960015 -0.000000000000      0.353542786906 -0.000000000000      0.000167628120 -0.000000000000
   3   7  0.000123122471 -0.000000000000      0.353563905247 -0.000000000000      0.000094269815 -0.000000000000
   3   8 -0.000102922116 -0.000000000000      0.353542786904 -0.000000000000     -0.000167620409 -0.000000000000
   4   1  0.271546859913  0.000000000000      0.000205593822  0.000000000000     -0.240299771415  0.000000000000
   4   2 -0.213707760115  0.000000000000      0.000133774859  0.000000000000      0.269902307940  0.000000000000
   4   3  0.213707760115  0.000000000000      0.000133774859  0.000000000000     -0.269902307940  0.000000000000
   4   4 -0.271546859913  0.000000000000      0.000205593822  0.000000000000      0.240299771415  0.000000000000
   4   5  0.213707760115  0.000000000000      0.000133774859  0.000000000000      0.269902307940  0.000000000000
   4   6 -0.271546859913  0.000000000000      0.000205593822  0.000000000000     -0.240299771415  0.000000000000
   4   7 -0.213707760115  0.000000000000      0.000133774859  0.000000000000     -0.269902307940  0.000000000000
   4   8  0.271546859913  0.000000000000      0.000205593822  0.000000000000      0.240299771415  0.000000000000
   5   1 -0.291384124281  0.000000000000      0.120160848106  0.000000000000      0.159303627499  0.000000000000
   5   2  0.285524128101  0.000000000000     -0.135541694020  0.000000000000     -0.159321807732  0.000000000000
   5   3  0.285524128101  0.000000000000      0.135541694020  0.000000000000     -0.159321807732  0.000000000000
   5   4 -0.291384124281  0.000000000000     -0.120160848106  0.000000000000      0.159303627499  0.000000000000
   5   5 -0.285524128101  0.000000000000     -0.135541694020  0.000000000000     -0.159321807732  0.000000000000
   5   6  0.291384124281  0.000000000000      0.120160848106  0.000000000000      0.159303627499  0.000000000000
   5   7 -0.285524128101  0.000000000000      0.135541694020  0.000000000000     -0.159321807732  0.000000000000
   5   8  0.291384124281  0.000000000000     -0.120160848106  0.000000000000      0.159303627499  0.000000000000
   6   1 -0.098692551973  0.000000000000     -0.152647944558  0.000000000000      0.279127912785  0.000000000000
   6   2  0.194323998381  0.000000000000      0.092397260048  0.000000000000     -0.304543795702  0.000000000000
   6   3 -0.194323998381  0.000000000000      0.092397260048  0.000000000000      0.304543795702  0.000000000000
   6   4  0.098692551973  0.000000000000     -0.152647944557  0.000000000000     -0.279127912785  0.000000000000
   6   5  0.194323998381  0.000000000000     -0.092397260048  0.000000000000      0.304543795702  0.000000000000
   6   6 -0.098692551973  0.000000000000      0.152647944557  0.000000000000     -0.279127912785  0.000000000000
   6   7 -0.194323998381  0.000000000000     -0.092397260048  0.000000000000     -0.304543795702  0.000000000000
   6   8  0.098692551973  0.000000000000      0.152647944558  0.000000000000      0.279127912785  0.000000000000
   7   1  0.050153223154  0.000000000000     -0.256915474431  0.000000000000      0.248237469004  0.000000000000
   7   2 -0.003169802996  0.000000000000      0.241294375223  0.000000000000     -0.248242278878  0.000000000000
   7   3 -0.003169802996  0.000000000000     -0.241294375223  0.000000000000     -0.248242278878  0.000000000000
   7   4  0.050153223154  0.000000000000      0.256915474431  0.000000000000      0.248237469004  0.000000000000
   7   5  0.003169802996  0.000000000000      0.241294375223  0.000000000000     -0.248242278878  0.000000000000
   7   6 -0.050153223154  0.000000000000     -0.256915474431  0.000000000000      0.248237469004  0.000000000000
   7   7  0.003169802996  0.000000000000     -0.241294375223  0.000000000000     -0.248242278878  0.000000000000
   7   8 -0.050153223154  0.000000000000      0.256915474431  0.000000000000      0.248237469004  0.000000000000
   8   1 -0.259216525189  0.000000000000      0.206181900611  0.000000000000     -0.009204166690  0.000000000000
   8   2  0.259295964548  0.000000000000     -0.269255653295  0.000000000000     -0.021865410639  0.000000000000
   8   3  0.259295964548  0.000000000000      0.269255653295  0.000000000000     -0.021865410639  0.000000000000
   8   4 -0.259216525189  0.000000000000     -0.206181900611  0.000000000000     -0.009204166690  0.000000000000
   8   5  0.259295964548  0.000000000000      0.269255653295  0.000000000000      0.021865410639  0.000000000000
   8   6 -0.259216525189  0.000000000000     -0.206181900611  0.000000000000      0.009204166690  0.000000000000
   8   7  0.259295964548  0.000000000000     -0.269255653295  0.000000000000      0.021865410639  0.000000000000
   8   8 -0.259216525189  0.000000000000      0.206181900611  0.000000000000      0.009204166690  0.000000000000
   9   1 -0.102496968896  0.000000000000      0.221430536336  0.000000000000      0.254339825444  0.000000000000
   9   2  0.216379515480  0.000000000000     -0.092072924149  0.000000000000      0.265474337850  0.000000000000
   9   3 -0.216379515480  0.000000000000     -0.092072924149  0.000000000000     -0.265474337850  0.000000000000
   9   4  0.102496968896  0.000000000000      0.221430536336  0.000000000000     -0.254339825444  0.000000000000
   9   5  0.216379515480  0.000000000000      0.092072924149  0.000000000000     -0.265474337850  0.000000000000
   9   6 -0.102496968896  0.000000000000     -0.221430536336  0.000000000000     -0.254339825444  0.000000000000
   9   7 -0.216379515480  0.000000000000      0.092072924149  0.000000000000      0.265474337850  0.000000000000
   9   8  0.102496968896  0.000000000000     -0.221430536336  0.000000000000      0.254339825444  0.000000000000
  10   1  0.018676525083  0.000000000000      0.402010779575  0.000000000000     -0.089056074631  0.000000000000
  10   2 -0.018716401639  0.000000000000      0.267532640406  0.000000000000      0.090462802934  0.000000000000
  10   3 -0.018716401639  0.000000000000     -0.267532640406  0.000000000000      0.090462802934  0.000000000000
  10   4  0.018676525083  0.000000000000     -0.402010779575  0.000000000000     -0.089056074631  0.000000000000
  10   5 -0.018716401639  0.000000000000     -0.267532640406  0.000000000000     -0.090462802934  0.000000000000
  10   6  0.018676525083  0.000000000000     -0.402010779575  0.000000000000      0.089056074631  0.000000000000
  10   7 -0.018716401639  0.000000000000      0.267532640406  0.000000000000     -0.090462802934  0.000000000000
  10   8  0.018676525083  0.000000000000      0.402010779575  0.000000000000      0.089056074631  0.000000000000
  11   1  0.348063340678  0.000000000000      0.032719954352  0.000000000000     -0.014843177268  0.000000000000
  11   2  0.356843500388  0.000000000000     -0.002352941237  0.000000000000      0.014770763377  0.000000000000
  11   3  0.356843500388  0.000000000000      0.002352941237  0.000000000000      0.014770763377  0.000000000000
  11   4  0.348063340678  0.000000000000     -0.032719954352  0.000000000000     -0.014843177268  0.000000000000
  11   5 -0.356843500388  0.000000000000     -0.002352941237  0.000000000000      0.014770763377  0.000000000000
  11   6 -0.348063340678  0.000000000000      0.032719954352  0.000000000000     -0.014843177268  0.000000000000
  11   7 -0.356843500388  0.000000000000      0.002352941237  0.000000000000      0.014770763377  0.000000000000
  11   8 -0.348063340678  0.000000000000     -0.032719954352  0.000000000000     -0.014843177268  0.000000000000
  12   1 -0.116993896077  0.000000000000      0.264502262000  0.000000000000     -0.255664635719  0.000000000000
  12   2  0.174008753801  0.000000000000     -0.264452492383  0.000000000000      0.027792239802  0.000000000000
  12   3 -0.174008753801  0.000000000000     -0.264452492383  0.000000000000     -0.027792239802  0.000000000000
  12   4  0.116993896078  0.000000000000      0.264502262000  0.000000000000      0.255664635719  0.000000000000
  12   5 -0.174008753801  0.000000000000     -0.264452492383  0.000000000000      0.027792239802  0.000000000000
  12   6  0.116993896077  0.000000000000      0.264502262000  0.000000000000     -0.255664635719  0.000000000000
  12   7  0.174008753801  0.000000000000     -0.264452492383  0.000000000000     -0.027792239802  0.000000000000
  12   8 -0.116993896078  0.000000000000      0.264502262000  0.000000000000      0.255664635719  0.000000000000
  13   1  0.098113294330  0.000000000000      0.202570480279  0.000000000000      0.073605075853  0.000000000000
  13   2 -0.080473068889  0.000000000000      0.432720956495  0.000000000000      0.014068894681  0.000000000000
  13   3  0.080473068889  0.000000000000      0.432720956495  0.000000000000     -0.014068894681  0.000000000000
  13   4 -0.098113294330  0.000000000000      0.202570480279  0.000000000000     -0.073605075853  0.000000000000
  13   5 -0.080473068889  0.000000000000     -0.432720956495  0.000000000000     -0.014068894681  0.000000000000
  13   6  0.098113294330  0.000000000000     -0.202570480279  0.000000000000     -0.073605075853  0.000000000000
  13   7  0.080473068889  0.000000000000     -0.432720956495  0.000000000000      0.014068894681  0.000000000000
  13   8 -0.098113294330  0.000000000000     -0.202570480279  0.000000000000      0.073605075853  0.000000000000
  14   1 -0.130791056740  0.000000000000     -0.025988766297  0.000000000000      0.285278756357  0.000000000000
  14   2  0.130785176550  0.000000000000      0.244306490661  0.000000000000     -0.272110071277  0.000000000000
  14   3  0.130785176550  0.000000000000     -0.244306490661  0.000000000000     -0.272110071277  0.000000000000
  14   4 -0.130791056740  0.000000000000      0.025988766297  0.000000000000      0.285278756357  0.000000000000
  14   5  0.130785176550  0.000000000000     -0.244306490661  0.000000000000      0.272110071277  0.000000000000
  14   6 -0.130791056740  0.000000000000      0.025988766297  0.000000000000     -0.285278756357  0.000000000000
  14   7  0.130785176550  0.000000000000      0.244306490661  0.000000000000      0.272110071277  0.000000000000
  14   8 -0.130791056740  0.000000000000     -0.025988766297  0.000000000000     -0.285278756357  0.000000000000
  15   1  0.146598387747  0.000000000000     -0.300623980425  0.000000000000      0.241273050187  0.000000000000
  15   2 -0.169921104814  0.000000000000      0.027561252323  0.000000000000      0.224251300700  0.000000000000
  15   3  0.169921104814  0.000000000000      0.027561252323  0.000000000000     -0.224251300700  0.000000000000
  15   4 -0.146598387747  0.000000000000     -0.300623980425  0.000000000000     -0.241273050187  0.000000000000
  15   5 -0.169921104814  0.000000000000     -0.027561252323  0.000000000000     -0.224251300700  0.000000000000
  15   6  0.146598387747  0.000000000000      0.300623980425  0.000000000000     -0.241273050187  0.000000000000
  15   7  0.169921104814  0.000000000000     -0.027561252323  0.000000000000      0.224251300700  0.000000000000
  15   8 -0.146598387747  0.000000000000      0.300623980425  0.000000000000      0.241273050187  0.000000000000
  16   1 -0.020387292211  0.000000000000      0.349384549238  0.000000000000      0.009358877304  0.000000000000
  16   2 -0.009016002161  0.000000000000      0.356729350071  0.000000000000     -0.009491521906  0.000000000000
  16   3 -0.009016002161  0.000000000000     -0.356729350071  0.000000000000     -0.009491521906  0.000000000000
  16   4 -0.020387292211  0.000000000000     -0.349384549238  0.000000000000      0.009358877304  0.000000000000
  16   5  0.009016002161  0.000000000000      0.356729350071  0.000000000000     -0.009491521906  0.000000000000
  16   6  0.020387292211  0.000000000000      0.349384549238  0.000000000000      0.009358877304  0.000000000000
  16   7  0.009016002161  0.000000000000     -0.356729350071  0.000000000000     -0.009491521906  0.000000000000
  16   8  0.020387292211  0.000000000000     -0.349384549238  0.000000000000      0.009358877304  0.000000000000
  17   1  0.001914009859  0.000000000000      0.086380754591  0.000000000000      0.299826267552  0.000000000000
  17   2  0.121423846418  0.000000000000     -0.086463177517  0.000000000000      0.361136095597  0.000000000000
  17   3 -0.121423846418  0.000000000000     -0.086463177517  0.000000000000     -0.361136095597  0.000000000000
  17   4 -0.001914009859  0.000000000000      0.086380754591  0.000000000000     -0.299826267552  0.000000000000
  17   5 -0.121423846418  0.000000000000     -0.086463177517  0.000000000000      0.361136095597  0.000000000000
  17   6 -0.001914009859  0.000000000000      0.086380754591  0.000000000000      0.299826267552  0.000000000000
  17   7  0.121423846418  0.000000000000     -0.086463177517  0.000000000000     -0.361136095597  0.000000000000
  17   8  0.001914009859  0.000000000000      0.086380754591  0.000000000000     -0.299826267552  0.000000000000
  18   1 -0.394964823193  0.000000000000      0.030711059245  0.000000000000      0.074327958825  0.000000000000
  18   2 -0.295708952288  0.000000000000      0.007722419178  0.000000000000     -0.005617258787  0.000000000000
  18   3  0.295708952288  0.000000000000      0.007722419178  0.000000000000      0.005617258787  0.000000000000
  18   4  0.394964823193  0.000000000000      0.030711059245  0.000000000000     -0.074327958825  0.000000000000
  18   5 -0.295708952288  0.000000000000     -0.007722419178  0.000000000000      0.005617258787  0.000000000000
  18   6 -0.394964823193  0.000000000000     -0.030711059245  0.000000000000     -0.074327958825  0.000000000000
  18   7  0.295708952288  0.000000000000     -0.007722419178  0.000000000000     -0.005617258787  0.000000000000
  18   8  0.394964823193  0.000000000000     -0.030711059245  0.000000000000      0.074327958825  0.000000000000
  19   1  0.347270585021  0.000000000000     -0.038133866105  0.000000000000     -0.013094785605  0.000000000000
  19   2  0.344237537869  0.000000000000      0.038095461825  0.000000000000     -0.088468802045  0.000000000000
  19   3 -0.344237537869  0.000000000000      0.038095461825  0.000000000000      0.088468802045  0.000000000000
  19   4 -0.347270585021  0.000000000000     -0.038133866105  0.000000000000      0.013094785605  0.000000000000
  19   5 -0.344237537869  0.000000000000      0.038095461825  0.000000000000     -0.088468802045  0.000000000000
  19   6 -0.347270585021  0.000000000000     -0.038133866105  0.000000000000     -0.013094785605  0.000000000000
  19   7  0.344237537869  0.000000000000      0.038095461825  0.000000000000      0.088468802045  0.000000000000
  19   8  0.347270585021  0.000000000000     -0.038133866105  0.000000000000      0.013094785605  0.000000000000
  20   1  0.009132643753  0.000000000000     -0.008647330641  0.000000000000     -0.348311806456  0.000000000000
  20   2 -0.009074638369  0.000000000000      0.016824895448  0.000000000000     -0.357987817958  0.000000000000
  20   3 -0.009074638369  0.000000000000     -0.016824895448  0.000000000000     -0.357987817958  0.000000000000
  20   4  0.009132643753  0.000000000000      0.008647330641  0.000000000000     -0.348311806456  0.000000000000
  20   5 -0.009074638369  0.000000000000     -0.016824895448  0.000000000000      0.357987817958  0.000000000000
  20   6  0.009132643753  0.000000000000      0.008647330641  0.000000000000      0.348311806456  0.000000000000
  20   7 -0.009074638369  0.000000000000      0.016824895448  0.000000000000      0.357987817958  0.000000000000
  20   8  0.009132643753  0.000000000000     -0.008647330641  0.000000000000      0.348311806456  0.000000000000
  21   1 -0.202524603200  0.000000000000     -0.215442906514  0.000000000000     -0.194134613307  0.000000000000
  21   2  0.202601458016  0.000000000000      0.214811787267  0.000000000000      0.194135098084  0.000000000000
  21   3  0.202601458016  0.000000000000     -0.214811787267  0.000000000000      0.194135098084  0.000000000000
  21   4 -0.202524603200  0.000000000000      0.215442906514  0.000000000000     -0.194134613307  0.000000000000
  21   5 -0.202601458016  0.000000000000      0.214811787267  0.000000000000      0.194135098084  0.000000000000
  21   6  0.202524603200  0.000000000000     -0.215442906514  0.000000000000     -0.194134613307  0.000000000000
  21   7 -0.202601458016  0.000000000000     -0.214811787267  0.000000000000      0.194135098084  0.000000000000
  21   8  0.202524603200  0.000000000000      0.215442906514  0.000000000000     -0.194134613307  0.000000000000
  22   1 -0.200619692385  0.000000000000     -0.212429199182  0.000000000000     -0.198189845395  0.000000000000
  22   2  0.200619554036  0.000000000000      0.214380360297  0.000000000000      0.197836334384  0.000000000000
  22   3  0.200619554036  0.000000000000     -0.214380360297  0.000000000000      0.197836334383  0.000000000000
  22   4 -0.200619692385  0.000000000000      0.212429199182  0.000000000000     -0.198189845395  0.000000000000
  22   5  0.200619554036  0.000000000000     -0.214380360297  0.000000000000     -0.197836334384  0.000000000000
  22   6 -0.200619692385  0.000000000000      0.212429199182  0.000000000000      0.198189845395  0.000000000000
  22   7  0.200619554036  0.000000000000      0.214380360297  0.000000000000     -0.197836334384  0.000000000000
  22   8 -0.200619692385  0.000000000000     -0.212429199182  0.000000000000      0.198189845395  0.000000000000
  23   1 -0.206493666194  0.000000000000     -0.212871736858  0.000000000000     -0.195560282511  0.000000000000
  23   2  0.206458731453  0.000000000000      0.211940176457  0.000000000000      0.190416173639  0.000000000000
  23   3 -0.206458731453  0.000000000000      0.211940176457  0.000000000000     -0.190416173639  0.000000000000
  23   4  0.206493666194  0.000000000000     -0.212871736858  0.000000000000      0.195560282511  0.000000000000
  23   5  0.206458731453  0.000000000000     -0.211940176457  0.000000000000     -0.190416173639  0.000000000000
  23   6 -0.206493666194  0.000000000000      0.212871736858  0.000000000000      0.195560282511  0.000000000000
  23   7 -0.206458731453  0.000000000000     -0.211940176457  0.000000000000      0.190416173639  0.000000000000
  23   8  0.206493666194  0.000000000000      0.212871736858  0.000000000000     -0.195560282511  0.000000000000
  24   1 -0.204876054971 -0.000000000000     -0.214779380872 -0.000000000000     -0.191896643218 -0.000000000000
  24   2  0.202006679978 -0.000000000000      0.214779610314 -0.000000000000      0.195280101933 -0.000000000000
  24   3 -0.202006679978 -0.000000000000      0.214779610314 -0.000000000000     -0.195280101933 -0.000000000000
  24   4  0.204876054971 -0.000000000000     -0.214779380872 -0.000000000000      0.191896643218 -0.000000000000
  24   5 -0.202006679978 -0.000000000000      0.214779610314 -0.000000000000      0.195280101933 -0.000000000000
  24   6  0.204876054971 -0.000000000000     -0.214779380872 -0.000000000000     -0.191896643218 -0.000000000000
  24   7  0.202006679978 -0.000000000000      0.214779610314 -0.000000000000     -0.195280101933 -0.000000000000
  24   8 -0.204876054971 -0.000000000000     -0.214779380872 -0.000000000000      0.191896643218 -0.000000000000
