Number of k-points    64
Number of spin components 1
Number of electrons  24.00    
Number of eigenvalues     12
Fermi energy (in atomic units)     0.019710
Unit cell vectors
    5.459406    0.000000    0.000000
    0.000000   16.378610    0.000000
    0.000000    0.000000    5.513221
K-point     1 -0.42857143 -0.42857143  0.00000000  0.01166181
Spin component 1
   -0.36021777
   -0.35119372
   -0.28044751
   -0.27190372
   -0.24688177
   -0.22221699
   -0.17525780
   -0.15319517
   -0.06063789
   -0.03884210
   -0.02309668
   -0.00845118
K-point    17 -0.14285714  0.28571429 -0.28571429  0.02332362
Spin component 1
   -0.41324363
   -0.38567075
   -0.31401254
   -0.23776500
   -0.16696815
   -0.14662424
   -0.12142153
   -0.10263313
   -0.07473004
   -0.07230383
   -0.06710465
   -0.05190567
K-point    33  0.00000000 -0.14285714 -0.28571429  0.01166181
Spin component 1
   -0.42916011
   -0.38299096
   -0.34674923
   -0.21862035
   -0.17955742
   -0.15792932
   -0.14376815
   -0.11831911
   -0.05537660
   -0.04196289
   -0.04007123
   -0.03535769
K-point    49  0.28571429 -0.14285714  0.00000000  0.01166181
Spin component 1
   -0.42997060
   -0.38373388
   -0.34740014
   -0.21848439
   -0.19469086
   -0.15692408
   -0.15691234
   -0.12880590
   -0.04500836
   -0.03457287
   -0.01628378
    0.01825688
K-point     2 -0.42857143 -0.42857143  0.14285714  0.02332362
Spin component 1
   -0.34856351
   -0.33964768
   -0.26957475
   -0.26123392
   -0.23726302
   -0.21334375
   -0.16859049
   -0.14816290
   -0.06405623
   -0.04589897
   -0.04325748
   -0.03446921
K-point    18 -0.14285714  0.28571429 -0.14285714  0.02332362
Spin component 1
   -0.44990570
   -0.42185940
   -0.34856829
   -0.26958353
   -0.14473610
   -0.09032386
   -0.07490408
   -0.06376534
   -0.05376855
   -0.04588973
   -0.04351234
   -0.03446563
K-point    34  0.00000000 -0.14285714 -0.14285714  0.01166181
Spin component 1
   -0.46605154
   -0.41917570
   -0.38223909
   -0.25011684
   -0.18602942
   -0.06186955
   -0.05396066
   -0.04769721
   -0.03997051
   -0.03109154
   -0.02853947
   -0.02340026
K-point    50  0.28571429 -0.14285714  0.42857143  0.02332362
Spin component 1
   -0.32226050
   -0.28008748
   -0.24799856
   -0.24127701
   -0.20467206
   -0.17881397
   -0.14755954
   -0.11987625
   -0.11598058
   -0.11195356
   -0.11194984
   -0.07309394
K-point     3 -0.42857143  0.00000000 -0.28571429  0.01166181
Spin component 1
   -0.32508823
   -0.26631589
   -0.26631572
   -0.24772076
   -0.19645672
   -0.19645658
   -0.12697102
   -0.12697088
   -0.10902591
   -0.10902587
   -0.10448423
   -0.06545955
K-point    19 -0.14285714  0.28571429  0.00000000  0.01166181
Spin component 1
   -0.46217999
   -0.43399273
   -0.36022262
   -0.28045646
   -0.15322583
   -0.09724718
   -0.07912165
   -0.06892860
   -0.03883041
   -0.00844483
    0.01442960
    0.01887475
K-point    35  0.00000000 -0.14285714  0.00000000  0.00583090
Spin component 1
   -0.47839349
   -0.43130507
   -0.39416077
   -0.26087975
   -0.19582456
   -0.05956786
   -0.05283732
   -0.02954609
   -0.01459887
    0.01503101
    0.01850109
    0.01913231
K-point    51  0.28571429  0.00000000 -0.28571429  0.01166181
Spin component 1
   -0.38298860
   -0.32067561
   -0.32067543
   -0.15791657
   -0.15643159
   -0.15643140
   -0.14376696
   -0.12272326
   -0.12272317
   -0.11315496
   -0.11315490
   -0.04197069
K-point     4 -0.42857143  0.00000000 -0.14285714  0.01166181
Spin component 1
   -0.36009441
   -0.29833176
   -0.29833158
   -0.28041420
   -0.22305255
   -0.22305239
   -0.13584558
   -0.13584539
   -0.08757098
   -0.08757084
   -0.02417400
   -0.02107437
K-point    20 -0.14285714  0.28571429  0.42857143  0.02332362
Spin component 1
   -0.35274704
   -0.32616646
   -0.26967247
   -0.25805189
   -0.24507658
   -0.18802911
   -0.18445012
   -0.12813390
   -0.09123413
   -0.06948862
   -0.05243870
   -0.04437078
K-point    36  0.00000000  0.00000000 -0.42857143  0.00583090
Spin component 1
   -0.36947844
   -0.30722903
   -0.30722885
   -0.28540291
   -0.22741370
   -0.22741354
   -0.14265556
   -0.14265538
   -0.09016867
   -0.09016854
   -0.02381114
   -0.02380490
K-point    52  0.28571429  0.00000000 -0.14285714  0.01166181
Spin component 1
   -0.41917327
   -0.35515072
   -0.35515053
   -0.18601522
   -0.17945809
   -0.17945788
   -0.13729648
   -0.13729634
   -0.05131939
   -0.05131934
   -0.03997093
   -0.03110720
K-point     5 -0.42857143  0.14285714 -0.28571429  0.02332362
Spin component 1
   -0.32385182
   -0.28151091
   -0.24919923
   -0.24660442
   -0.20929412
   -0.18246250
   -0.14676604
   -0.11637051
   -0.10929457
   -0.10452566
   -0.10421728
   -0.06639831
K-point    21 -0.14285714  0.42857143 -0.28571429  0.02332362
Spin component 1
   -0.40664999
   -0.39744432
   -0.29044911
   -0.26494831
   -0.16196513
   -0.15512629
   -0.09437858
   -0.09172918
   -0.08221849
   -0.07064770
   -0.07063385
   -0.06874637
K-point    37  0.00000000  0.00000000 -0.28571429  0.00583090
Spin component 1
   -0.43049152
   -0.36608156
   -0.36608137
   -0.18848523
   -0.18848502
   -0.18063572
   -0.13156092
   -0.13156079
   -0.04752969
   -0.04752966
   -0.03539360
   -0.03537755
K-point    53  0.28571429  0.00000000  0.00000000  0.00583090
Spin component 1
   -0.43130262
   -0.36678695
   -0.36678677
   -0.19580995
   -0.18797977
   -0.18797955
   -0.14360695
   -0.14360680
   -0.02976695
   -0.02976684
   -0.02956429
    0.01912977
K-point     6 -0.42857143  0.14285714 -0.14285714  0.02332362
Spin component 1
   -0.35880979
   -0.31446059
   -0.27998280
   -0.27920301
   -0.23785573
   -0.20639944
   -0.16211422
   -0.11010229
   -0.10693975
   -0.07007745
   -0.02524890
   -0.02389943
K-point    22 -0.14285714  0.42857143 -0.14285714  0.02332362
Spin component 1
   -0.44320608
   -0.43384706
   -0.32429679
   -0.29789871
   -0.11417365
   -0.08646529
   -0.08644746
   -0.08123533
   -0.05098071
   -0.04743996
   -0.04026443
   -0.03635592
K-point    38  0.00000000  0.00000000 -0.14285714  0.00583090
Spin component 1
   -0.46740181
   -0.40195918
   -0.40195899
   -0.21847230
   -0.21847207
   -0.06260926
   -0.04830272
   -0.04828150
   -0.03398566
   -0.03398560
   -0.02690582
   -0.02690575
K-point    54  0.28571429  0.00000000  0.42857143  0.01166181
Spin component 1
   -0.32349304
   -0.26498186
   -0.26498169
   -0.24237821
   -0.19223438
   -0.19223424
   -0.12861521
   -0.12861509
   -0.11634435
   -0.11458126
   -0.11458126
   -0.07228020
K-point     7 -0.42857143  0.14285714  0.00000000  0.01166181
Spin component 1
   -0.37057551
   -0.32566677
   -0.29060013
   -0.29028263
   -0.24785921
   -0.21520853
   -0.16871215
   -0.11279552
   -0.10687131
   -0.06150659
   -0.01089406
    0.00894461
K-point    23 -0.14285714  0.42857143  0.00000000  0.01166181
Spin component 1
   -0.45544714
   -0.44604209
   -0.33574725
   -0.30909549
   -0.12167165
   -0.09281048
   -0.09279154
   -0.08670172
   -0.02801304
   -0.01774609
    0.01672260
    0.01811516
K-point    39  0.00000000  0.00000000  0.00000000  0.00291545
Spin component 1
   -0.47974404
   -0.41399535
   -0.41399516
   -0.22880921
   -0.22880898
   -0.05360162
   -0.05357888
   -0.02219686
   -0.02219676
    0.01763852
    0.01763854
    0.01836836
K-point    55  0.28571429  0.14285714  0.28571429  0.02332362
Spin component 1
   -0.38169561
   -0.33695942
   -0.30214459
   -0.18297361
   -0.15704727
   -0.14295500
   -0.13046845
   -0.13045953
   -0.11931689
   -0.11541164
   -0.10796499
   -0.04472152
K-point     8 -0.42857143  0.14285714  0.42857143  0.02332362
Spin component 1
   -0.26696421
   -0.22938764
   -0.20248378
   -0.19492345
   -0.19121968
   -0.16790644
   -0.16494129
   -0.15315806
   -0.15115331
   -0.13812381
   -0.13027267
   -0.12801812
K-point    24  0.00000000 -0.42857143 -0.42857143  0.01166181
Spin component 1
   -0.35786560
   -0.34888163
   -0.27445070
   -0.26601822
   -0.24556089
   -0.22135942
   -0.17231511
   -0.15164579
   -0.06892374
   -0.05000980
   -0.04444580
   -0.03509248
K-point    40  0.14285714  0.00000000 -0.42857143  0.01166181
Spin component 1
   -0.35786503
   -0.29643228
   -0.29643210
   -0.27445020
   -0.21810954
   -0.21810939
   -0.13777513
   -0.13777496
   -0.09412854
   -0.09412845
   -0.05000167
   -0.03509572
K-point    56  0.28571429  0.42857143 -0.28571429  0.02332362
Spin component 1
   -0.37136497
   -0.36237430
   -0.25897331
   -0.23478686
   -0.15030264
   -0.14470654
   -0.13672032
   -0.13164828
   -0.10513010
   -0.10348195
   -0.08430940
   -0.06629526
K-point     9 -0.42857143  0.28571429 -0.42857143  0.02332362
Spin component 1
   -0.26359878
   -0.24077927
   -0.19229011
   -0.18863200
   -0.18785409
   -0.17546432
   -0.17221278
   -0.14757368
   -0.14757238
   -0.14628368
   -0.12935748
   -0.12675049
K-point    25  0.00000000 -0.42857143 -0.28571429  0.01166181
Spin component 1
   -0.41852923
   -0.40926542
   -0.30124686
   -0.27538013
   -0.17103470
   -0.16373774
   -0.09926363
   -0.09062996
   -0.07739933
   -0.07384258
   -0.03648713
   -0.03561955
K-point    41  0.14285714  0.00000000 -0.28571429  0.01166181
Spin component 1
   -0.41852863
   -0.35459653
   -0.35459634
   -0.17988310
   -0.17988289
   -0.17103433
   -0.12576360
   -0.12576349
   -0.07382711
   -0.06693732
   -0.06693731
   -0.03563341
K-point    57  0.28571429  0.42857143 -0.14285714  0.02332362
Spin component 1
   -0.40727834
   -0.39806558
   -0.29081951
   -0.26520394
   -0.17651885
   -0.16929012
   -0.09602253
   -0.09231449
   -0.08245042
   -0.06778019
   -0.04027517
   -0.03968520
K-point    10 -0.42857143  0.42857143  0.42857143  0.02332362
Spin component 1
   -0.25804779
   -0.25039631
   -0.18802235
   -0.18444705
   -0.18231394
   -0.17886479
   -0.17326912
   -0.15954864
   -0.14428743
   -0.14383999
   -0.12813037
   -0.12704812
K-point    26  0.00000000 -0.42857143 -0.14285714  0.01166181
Spin component 1
   -0.45527565
   -0.44587577
   -0.33564727
   -0.30902204
   -0.12217177
   -0.09352730
   -0.05614795
   -0.05148255
   -0.04322924
   -0.03964210
   -0.02134042
   -0.02029726
K-point    42  0.14285714  0.00000000 -0.14285714  0.01166181
Spin component 1
   -0.45527504
   -0.39015960
   -0.39015941
   -0.20842917
   -0.20842895
   -0.09350840
   -0.06020741
   -0.06020730
   -0.05614791
   -0.04324908
   -0.03651963
   -0.03651960
K-point    58  0.28571429  0.42857143  0.00000000  0.01166181
Spin component 1
   -0.41932934
   -0.41005418
   -0.30171919
   -0.27571131
   -0.18582007
   -0.17817276
   -0.09671929
   -0.09592618
   -0.07865842
   -0.07027175
    0.00414992
    0.01093299
K-point    11 -0.28571429 -0.42857143 -0.42857143  0.02332362
Spin component 1
   -0.31244549
   -0.30393922
   -0.23255107
   -0.22508352
   -0.20950658
   -0.18881118
   -0.15130902
   -0.13872396
   -0.11357356
   -0.11218527
   -0.08777502
   -0.08040075
K-point    27  0.00000000 -0.42857143  0.00000000  0.00583090
Spin component 1
   -0.46757727
   -0.45813366
   -0.34725088
   -0.32040770
   -0.13047532
   -0.10088073
   -0.04707131
   -0.04224310
   -0.00009341
    0.00608393
    0.01933339
    0.01970160
K-point    43  0.14285714  0.00000000  0.00000000  0.00583090
Spin component 1
   -0.46757665
   -0.40210599
   -0.40210580
   -0.21837815
   -0.21837792
   -0.10086087
   -0.06035971
   -0.06035958
   -0.04709292
    0.00601379
    0.00601384
    0.01933288
K-point    59  0.42857143 -0.42857143  0.28571429  0.02332362
Spin component 1
   -0.31400797
   -0.30546871
   -0.23775682
   -0.23016540
   -0.21026092
   -0.18920021
   -0.15305197
   -0.13901696
   -0.10263264
   -0.10206653
   -0.08298851
   -0.07473269
K-point    12 -0.28571429 -0.28571429  0.42857143  0.02332362
Spin component 1
   -0.31856906
   -0.29311929
   -0.23798320
   -0.22939000
   -0.21572055
   -0.16791085
   -0.16494269
   -0.12801875
   -0.11497719
   -0.11140196
   -0.09824401
   -0.07567734
K-point    28  0.00000000 -0.28571429 -0.42857143  0.01166181
Spin component 1
   -0.36430716
   -0.33740708
   -0.28051858
   -0.26809512
   -0.25529572
   -0.19582045
   -0.19209545
   -0.13061469
   -0.09141687
   -0.05689380
   -0.03570794
   -0.02869172
K-point    44  0.14285714  0.42857143  0.42857143  0.02332362
Spin component 1
   -0.34637546
   -0.33749831
   -0.26373601
   -0.25550997
   -0.23607362
   -0.21260318
   -0.16593312
   -0.14694312
   -0.07171920
   -0.06141826
   -0.05590134
   -0.05589579
K-point    60  0.42857143 -0.28571429 -0.14285714  0.02332362
Spin component 1
   -0.35495918
   -0.32826061
   -0.27558155
   -0.25956021
   -0.25062929
   -0.18814465
   -0.18814089
   -0.12738929
   -0.08581767
   -0.05515456
   -0.03229202
   -0.02858449
K-point    13 -0.14285714  0.14285714 -0.28571429  0.02332362
Spin component 1
   -0.41720636
   -0.37136673
   -0.33544257
   -0.20925181
   -0.17001334
   -0.15031445
   -0.13672110
   -0.11420791
   -0.07343096
   -0.06963722
   -0.06628628
   -0.03981977
K-point    29  0.00000000 -0.28571429 -0.28571429  0.01166181
Spin component 1
   -0.42516869
   -0.39740488
   -0.32509342
   -0.24772962
   -0.17633700
   -0.15458178
   -0.12780623
   -0.10448564
   -0.06545828
   -0.05343642
   -0.03843093
   -0.03535985
K-point    45  0.28571429 -0.28571429  0.00000000  0.01166181
Spin component 1
   -0.42597569
   -0.39817627
   -0.32566977
   -0.24786624
   -0.19134713
   -0.16849104
   -0.12612151
   -0.11278725
   -0.06150266
   -0.04879962
   -0.00492301
    0.01557244
K-point    61  0.42857143 -0.28571429  0.00000000  0.01166181
Spin component 1
   -0.36668629
   -0.33966029
   -0.28658399
   -0.26975076
   -0.26101563
   -0.19603669
   -0.19603274
   -0.13023308
   -0.08572888
   -0.04102669
   -0.02179961
    0.00234799
K-point    14 -0.14285714  0.14285714 -0.14285714  0.02332362
Spin component 1
   -0.45393201
   -0.40728016
   -0.37055936
   -0.23962854
   -0.17653229
   -0.09270483
   -0.06776563
   -0.05554185
   -0.05273095
   -0.04860955
   -0.03968464
   -0.03461640
K-point    30  0.00000000 -0.28571429 -0.14285714  0.01166181
Spin component 1
   -0.46200833
   -0.43383018
   -0.36009982
   -0.28042363
   -0.15355464
   -0.06987682
   -0.05967537
   -0.04597663
   -0.04596100
   -0.03547716
   -0.02417080
   -0.02106516
K-point    46  0.28571429 -0.28571429  0.14285714  0.02332362
Spin component 1
   -0.41388103
   -0.38627666
   -0.31446354
   -0.23786257
   -0.18176707
   -0.16021124
   -0.12004144
   -0.11009486
   -0.07007443
   -0.04823669
   -0.04203640
   -0.03969874
K-point    62  0.42857143  0.00000000 -0.42857143  0.01166181
Spin component 1
   -0.26809040
   -0.21649628
   -0.21649614
   -0.19581289
   -0.19209176
   -0.16022158
   -0.16022149
   -0.15766306
   -0.15766298
   -0.13163239
   -0.13163238
   -0.13061003
K-point    15 -0.14285714  0.14285714  0.00000000  0.01166181
Spin component 1
   -0.46622433
   -0.41933117
   -0.38237695
   -0.25009198
   -0.18583395
   -0.09995824
   -0.07025558
   -0.05282677
   -0.04975764
   -0.00045623
    0.01093506
    0.01923175
K-point    31  0.00000000 -0.28571429  0.00000000  0.00583090
Spin component 1
   -0.47433449
   -0.44603242
   -0.37187962
   -0.29152852
   -0.16266992
   -0.07626443
   -0.05064844
   -0.03632441
   -0.00711476
    0.01116841
    0.01887214
    0.01972874
K-point    47  0.28571429 -0.28571429  0.28571429  0.02332362
Spin component 1
   -0.37781406
   -0.35088507
   -0.28151369
   -0.20930027
   -0.15447533
   -0.14056656
   -0.13796190
   -0.12569053
   -0.10929017
   -0.10606033
   -0.10452504
   -0.05291755
K-point    63  0.42857143  0.00000000  0.00000000  0.00583090
Spin component 1
   -0.37187415
   -0.30928204
   -0.30928185
   -0.29151893
   -0.23254302
   -0.23254285
   -0.14074842
   -0.14074821
   -0.08371854
   -0.08371837
   -0.00712761
    0.01116150
K-point    16 -0.14285714  0.14285714  0.42857143  0.02332362
Spin component 1
   -0.35658318
   -0.31244712
   -0.27824425
   -0.27325217
   -0.23255244
   -0.20197450
   -0.16286558
   -0.11358145
   -0.11026716
   -0.08040097
   -0.05058068
   -0.03741030
K-point    32  0.00000000 -0.14285714 -0.42857143  0.01166181
Spin component 1
   -0.36818425
   -0.32349525
   -0.28871219
   -0.28417967
   -0.24238376
   -0.21056954
   -0.16939060
   -0.11635370
   -0.10987092
   -0.07228256
   -0.02682584
   -0.02500610
K-point    48  0.28571429 -0.14285714 -0.14285714  0.02332362
Spin component 1
   -0.41784980
   -0.37195120
   -0.33595378
   -0.20912927
   -0.18494917
   -0.14947540
   -0.14946425
   -0.12402934
   -0.05954346
   -0.04555371
   -0.03987963
   -0.03552607
K-point    64  0.42857143  0.28571429  0.28571429  0.02332362
Spin component 1
   -0.32014960
   -0.29460645
   -0.24326605
   -0.23040569
   -0.22061480
   -0.16779118
   -0.16778814
   -0.12653005
   -0.10350926
   -0.10244308
   -0.09450023
   -0.06936619
