Number of k-points   125
Number of spin components 1
Number of electrons  24.00    
Number of eigenvalues     12
Fermi energy (in atomic units)     0.009864
Unit cell vectors
    5.456866    0.000000    0.000000
    0.000000   16.370690    0.000000
    0.000000    0.000000    5.515379
K-point     1 -0.45000000 -0.45000000 -0.35000000  0.00800000
Spin component 1
   -0.28010883
   -0.27443561
   -0.22820766
   -0.22315174
   -0.18396726
   -0.17171155
   -0.15152601
   -0.14407133
   -0.13227067
   -0.13041571
   -0.10394715
   -0.10244944
K-point     2 -0.45000000 -0.45000000 -0.15000000  0.00800000
Spin component 1
   -0.33550114
   -0.32930778
   -0.28017731
   -0.27426805
   -0.22320468
   -0.20676791
   -0.17549462
   -0.16080457
   -0.05771188
   -0.04616360
   -0.04526918
   -0.03846193
K-point     3 -0.45000000 -0.45000000 -0.05000000  0.00800000
Spin component 1
   -0.34680822
   -0.34053251
   -0.29094056
   -0.28490361
   -0.23218159
   -0.21516897
   -0.18236741
   -0.16666854
   -0.05172653
   -0.03743413
   -0.02757535
   -0.01702009
K-point     4 -0.45000000 -0.25000000 -0.45000000  0.00800000
Spin component 1
   -0.24472087
   -0.21969663
   -0.19528808
   -0.19284386
   -0.17798245
   -0.17578514
   -0.17365744
   -0.15107578
   -0.15008414
   -0.14901149
   -0.14342953
   -0.13979983
K-point     5 -0.45000000 -0.25000000 -0.35000000  0.00800000
Spin component 1
   -0.28813870
   -0.25994424
   -0.23542889
   -0.21043358
   -0.20835603
   -0.16848771
   -0.14843194
   -0.13536603
   -0.13260342
   -0.12704571
   -0.10981887
   -0.10112643
K-point     6 -0.45000000 -0.25000000  0.05000000  0.00800000
Spin component 1
   -0.35563057
   -0.32432850
   -0.29943991
   -0.26935292
   -0.26365346
   -0.21174796
   -0.17909922
   -0.13391758
   -0.08513085
   -0.05356374
   -0.01585393
   -0.00179127
K-point     7 -0.45000000 -0.15000000 -0.25000000  0.00800000
Spin component 1
   -0.32400819
   -0.28224074
   -0.26923747
   -0.24801048
   -0.23039158
   -0.19950963
   -0.14529578
   -0.11752161
   -0.10373809
   -0.09325655
   -0.07741368
   -0.05650483
K-point     8 -0.45000000 -0.05000000 -0.05000000  0.00800000
Spin component 1
   -0.35942229
   -0.30339074
   -0.30310001
   -0.29121400
   -0.24935049
   -0.23777760
   -0.14129820
   -0.12223493
   -0.10056004
   -0.08421990
   -0.00597185
    0.00486463
K-point     9 -0.45000000 -0.05000000  0.45000000  0.00800000
Spin component 1
   -0.24787235
   -0.20411602
   -0.19789185
   -0.19558468
   -0.19541039
   -0.16506378
   -0.16324799
   -0.15984001
   -0.15824482
   -0.15060384
   -0.13839549
   -0.13789991
K-point    10 -0.45000000  0.05000000  0.35000000  0.00800000
Spin component 1
   -0.29160662
   -0.24160232
   -0.23857456
   -0.23117617
   -0.19482514
   -0.18625551
   -0.13686071
   -0.12879382
   -0.12673627
   -0.12583232
   -0.12097455
   -0.10084325
K-point    11 -0.35000000 -0.45000000 -0.45000000  0.00800000
Spin component 1
   -0.27879561
   -0.27314188
   -0.22448552
   -0.21949664
   -0.18348990
   -0.17148114
   -0.15064681
   -0.14393947
   -0.13867022
   -0.13655549
   -0.10733410
   -0.10609438
K-point    12 -0.35000000 -0.45000000 -0.35000000  0.00800000
Spin component 1
   -0.32367687
   -0.31764485
   -0.21659307
   -0.20155715
   -0.17092882
   -0.16694796
   -0.16290247
   -0.15912850
   -0.12673196
   -0.12603337
   -0.08626074
   -0.08000384
K-point    13 -0.35000000 -0.35000000  0.45000000  0.00800000
Spin component 1
   -0.28335892
   -0.26643297
   -0.22854191
   -0.21363962
   -0.19558504
   -0.15984060
   -0.15824501
   -0.14056166
   -0.13839557
   -0.13439475
   -0.10938528
   -0.10542228
K-point    14 -0.35000000 -0.25000000  0.25000000  0.00800000
Spin component 1
   -0.36678822
   -0.33561273
   -0.27543925
   -0.20510491
   -0.19281265
   -0.18056790
   -0.13924055
   -0.10544004
   -0.10262555
   -0.10099875
   -0.09437324
   -0.04880751
K-point    15 -0.35000000 -0.25000000  0.35000000  0.00800000
Spin component 1
   -0.33217763
   -0.30212881
   -0.24514994
   -0.17675077
   -0.17091956
   -0.16846977
   -0.15734202
   -0.15016012
   -0.13206577
   -0.12875588
   -0.10373831
   -0.07194450
K-point    16 -0.35000000 -0.15000000 -0.25000000  0.00800000
Spin component 1
   -0.36930850
   -0.32577418
   -0.28957706
   -0.20715750
   -0.17482459
   -0.17320413
   -0.14806699
   -0.12177739
   -0.10185765
   -0.09851072
   -0.09389487
   -0.04405135
K-point    17 -0.35000000 -0.15000000 -0.15000000  0.00800000
Spin component 1
   -0.39266255
   -0.34823138
   -0.31103098
   -0.22714952
   -0.19001897
   -0.18943283
   -0.15955711
   -0.13054009
   -0.07998614
   -0.05531777
   -0.03655665
   -0.03001223
K-point    18 -0.35000000 -0.15000000 -0.05000000  0.00800000
Spin component 1
   -0.40440074
   -0.35956725
   -0.32192373
   -0.23737447
   -0.19825237
   -0.19807905
   -0.16626551
   -0.13607256
   -0.07319624
   -0.03615823
   -0.02470285
    0.00868958
K-point    19 -0.35000000 -0.05000000 -0.35000000  0.00800000
Spin component 1
   -0.33583891
   -0.28224001
   -0.27077545
   -0.17933218
   -0.17095159
   -0.14655320
   -0.14123417
   -0.14123302
   -0.14044938
   -0.13589149
   -0.12749845
   -0.06879182
K-point    20 -0.35000000 -0.05000000 -0.25000000  0.00800000
Spin component 1
   -0.37056924
   -0.31479570
   -0.30271463
   -0.20818919
   -0.16523535
   -0.15680118
   -0.15679959
   -0.13901325
   -0.10230389
   -0.09575603
   -0.09427881
   -0.04167091
K-point    21 -0.35000000 -0.05000000 -0.15000000  0.00800000
Spin component 1
   -0.39394721
   -0.33697748
   -0.32456467
   -0.22826682
   -0.18021055
   -0.17021852
   -0.17021671
   -0.15030093
   -0.07055640
   -0.06229342
   -0.03629764
   -0.02639290
K-point    22 -0.35000000 -0.05000000 -0.05000000  0.00800000
Spin component 1
   -0.40569450
   -0.34819177
   -0.33563416
   -0.23852951
   -0.18834002
   -0.17771104
   -0.17770914
   -0.15690198
   -0.06008960
   -0.04766542
   -0.02037962
    0.00988198
K-point    23 -0.35000000  0.25000000 -0.05000000  0.00800000
Spin component 1
   -0.40181519
   -0.36973282
   -0.30710206
   -0.23507300
   -0.21832937
   -0.20687042
   -0.15409067
   -0.11552690
   -0.08676578
   -0.03305748
   -0.02575696
    0.00627542
K-point    24 -0.35000000  0.35000000 -0.05000000  0.00800000
Spin component 1
   -0.39794066
   -0.37866930
   -0.29121454
   -0.23777878
   -0.23163204
   -0.21465899
   -0.14129688
   -0.10055938
   -0.09564267
   -0.04495958
   -0.01661397
    0.00258903
K-point    25 -0.35000000  0.35000000  0.25000000  0.00800000
Spin component 1
   -0.36301337
   -0.34427798
   -0.26037179
   -0.21053890
   -0.20204898
   -0.18721222
   -0.13055620
   -0.10806773
   -0.09979744
   -0.09544598
   -0.09035784
   -0.05592021
K-point    26 -0.35000000  0.45000000 -0.05000000  0.00800000
Spin component 1
   -0.39278449
   -0.38635695
   -0.27431595
   -0.25647523
   -0.22706873
   -0.22140264
   -0.12800995
   -0.11437192
   -0.07688279
   -0.05978311
   -0.00882521
   -0.00242703
K-point    27 -0.35000000  0.45000000  0.25000000  0.00800000
Spin component 1
   -0.35799459
   -0.35174487
   -0.24445696
   -0.22780420
   -0.19801460
   -0.19305219
   -0.12228314
   -0.11469405
   -0.09836514
   -0.09685323
   -0.07688600
   -0.06532904
K-point    28 -0.25000000 -0.35000000  0.45000000  0.00800000
Spin component 1
   -0.31590527
   -0.29797523
   -0.25904765
   -0.24243246
   -0.21969736
   -0.17578619
   -0.17365796
   -0.13980038
   -0.09446585
   -0.09141426
   -0.08821256
   -0.07100780
K-point    29 -0.25000000  0.05000000 -0.45000000  0.00800000
Spin component 1
   -0.32316720
   -0.27004114
   -0.26583645
   -0.25870931
   -0.21705856
   -0.20698796
   -0.13240170
   -0.11935134
   -0.11250091
   -0.10595444
   -0.09122700
   -0.06517783
K-point    30 -0.25000000  0.05000000  0.05000000  0.00800000
Spin component 1
   -0.44096633
   -0.38253120
   -0.36973323
   -0.20687276
   -0.18498810
   -0.16935176
   -0.12469557
   -0.11552429
   -0.03484134
   -0.02575646
   -0.01814150
    0.00961347
K-point    31 -0.25000000  0.05000000  0.15000000  0.00800000
Spin component 1
   -0.42903502
   -0.37099108
   -0.35829667
   -0.19780622
   -0.17648706
   -0.16027513
   -0.11929953
   -0.11125480
   -0.04970247
   -0.04966509
   -0.04729309
   -0.03460389
K-point    32 -0.25000000  0.05000000  0.25000000  0.00800000
Spin component 1
   -0.40526193
   -0.34807637
   -0.33561312
   -0.18056998
   -0.16057387
   -0.14284214
   -0.12509589
   -0.11077317
   -0.10543814
   -0.09808660
   -0.09437322
   -0.03691204
K-point    33 -0.25000000  0.05000000  0.35000000  0.00800000
Spin component 1
   -0.36985333
   -0.31417824
   -0.30212918
   -0.19902758
   -0.15795129
   -0.15734376
   -0.15016029
   -0.13987612
   -0.11877081
   -0.10409648
   -0.10373729
   -0.04623644
K-point    34 -0.25000000  0.15000000 -0.35000000  0.00800000
Spin component 1
   -0.36859408
   -0.32513224
   -0.28903242
   -0.19802361
   -0.17510413
   -0.16541787
   -0.14225141
   -0.12302216
   -0.11822032
   -0.10531406
   -0.10446865
   -0.04846528
K-point    35 -0.25000000  0.15000000 -0.25000000  0.00800000
Spin component 1
   -0.40397601
   -0.35937461
   -0.32201997
   -0.20045614
   -0.14200207
   -0.14074830
   -0.12432839
   -0.11617168
   -0.10217354
   -0.10039704
   -0.09129526
   -0.04048724
K-point    36 -0.25000000  0.15000000 -0.15000000  0.00800000
Spin component 1
   -0.42773162
   -0.38248405
   -0.34442983
   -0.21880026
   -0.15928692
   -0.15508826
   -0.12689474
   -0.10290788
   -0.05318002
   -0.04939091
   -0.04595807
   -0.03917286
K-point    37 -0.25000000  0.15000000 -0.05000000  0.00800000
Spin component 1
   -0.43965421
   -0.39411030
   -0.35574445
   -0.22834079
   -0.16830386
   -0.16291556
   -0.13319723
   -0.10578759
   -0.03990362
   -0.03429290
   -0.01153295
    0.00919852
K-point    38 -0.25000000  0.15000000  0.45000000  0.00800000
Spin component 1
   -0.32195387
   -0.28040022
   -0.26470048
   -0.24647704
   -0.22638420
   -0.19629430
   -0.14636080
   -0.12043277
   -0.10749305
   -0.10083786
   -0.09121318
   -0.06609749
K-point    39 -0.25000000  0.25000000 -0.35000000  0.00800000
Spin component 1
   -0.36607686
   -0.33495022
   -0.27494671
   -0.19602603
   -0.19287885
   -0.17239365
   -0.13445821
   -0.11714911
   -0.10712531
   -0.10712345
   -0.10646965
   -0.05293557
K-point    40 -0.25000000  0.25000000 -0.25000000  0.00800000
Spin component 1
   -0.40140123
   -0.36947985
   -0.30734080
   -0.22000233
   -0.14033875
   -0.12281841
   -0.12142362
   -0.12142104
   -0.10638429
   -0.09591049
   -0.08910546
   -0.04749890
K-point    41 -0.25000000  0.25000000 -0.15000000  0.00800000
Spin component 1
   -0.42512361
   -0.39275135
   -0.32942659
   -0.23927707
   -0.15732350
   -0.13391378
   -0.13391081
   -0.09444238
   -0.05786696
   -0.04880554
   -0.04799010
   -0.04548428
K-point    42 -0.25000000  0.25000000 -0.05000000  0.00800000
Spin component 1
   -0.43703162
   -0.40445096
   -0.34059658
   -0.24921601
   -0.16621648
   -0.14094568
   -0.14094255
   -0.09560880
   -0.04960387
   -0.04361923
   -0.00597262
    0.00832860
K-point    43 -0.25000000  0.35000000 -0.35000000  0.00800000
Spin component 1
   -0.36230741
   -0.34359865
   -0.25994507
   -0.21043491
   -0.19305470
   -0.17873970
   -0.12704588
   -0.11561063
   -0.10981864
   -0.10927665
   -0.09254390
   -0.05964775
K-point    44 -0.25000000  0.35000000 -0.25000000  0.00800000
Spin component 1
   -0.39754633
   -0.37836666
   -0.29162897
   -0.23902854
   -0.13788254
   -0.12634899
   -0.12060228
   -0.11050219
   -0.10299031
   -0.09223372
   -0.08801659
   -0.05767508
K-point    45 -0.25000000  0.35000000 -0.15000000  0.00800000
Spin component 1
   -0.42121701
   -0.40177158
   -0.31333089
   -0.25907919
   -0.15440506
   -0.14024952
   -0.11335265
   -0.08605477
   -0.06366668
   -0.06050663
   -0.04800782
   -0.04566337
K-point    46 -0.25000000  0.35000000 -0.05000000  0.00800000
Spin component 1
   -0.43310132
   -0.41353293
   -0.32432945
   -0.26935452
   -0.16310595
   -0.14786177
   -0.11945967
   -0.08512889
   -0.06323155
   -0.05356252
   -0.00142655
    0.00693339
K-point    47 -0.25000000  0.45000000 -0.35000000  0.00800000
Spin component 1
   -0.35729503
   -0.35105413
   -0.24411500
   -0.22756685
   -0.18914583
   -0.18435229
   -0.12029335
   -0.11447385
   -0.11369728
   -0.11153391
   -0.07960137
   -0.06857126
K-point    48 -0.25000000  0.45000000 -0.25000000  0.00800000
Spin component 1
   -0.39241369
   -0.38601666
   -0.27495149
   -0.25738629
   -0.13468148
   -0.13080662
   -0.11774561
   -0.11433719
   -0.08959959
   -0.08816716
   -0.08589524
   -0.07062447
K-point    49 -0.25000000  0.45000000 -0.15000000  0.00800000
Spin component 1
   -0.41601677
   -0.40953112
   -0.29619434
   -0.27808403
   -0.15055729
   -0.14582025
   -0.09387293
   -0.07797604
   -0.07603770
   -0.07043607
   -0.04711889
   -0.04627776
K-point    50 -0.25000000  0.45000000 -0.05000000  0.00800000
Spin component 1
   -0.42786940
   -0.42134256
   -0.30699162
   -0.28864335
   -0.15898688
   -0.15389284
   -0.09892540
   -0.07994517
   -0.07450776
   -0.06392133
    0.00217007
    0.00491836
K-point    51 -0.25000000  0.45000000  0.45000000  0.00800000
Spin component 1
   -0.31109060
   -0.30510751
   -0.25456428
   -0.24901502
   -0.20539290
   -0.19068842
   -0.16210897
   -0.15073098
   -0.09281662
   -0.09187441
   -0.08096817
   -0.07527757
K-point    52 -0.15000000  0.45000000 -0.35000000  0.00800000
Spin component 1
   -0.38009056
   -0.37373022
   -0.26362761
   -0.24629064
   -0.20792789
   -0.20261979
   -0.12191929
   -0.11189088
   -0.07988050
   -0.06594139
   -0.06552620
   -0.06552376
K-point    53 -0.15000000  0.45000000  0.45000000  0.00800000
Spin component 1
   -0.33314257
   -0.32697921
   -0.27539843
   -0.26955383
   -0.22206279
   -0.20599152
   -0.17347056
   -0.15961319
   -0.06694927
   -0.06180230
   -0.05714474
   -0.05714384
K-point    54  0.05000000 -0.35000000 -0.35000000  0.00800000
Spin component 1
   -0.39673490
   -0.37750710
   -0.29045103
   -0.23752396
   -0.22211282
   -0.20556848
   -0.13635222
   -0.10092019
   -0.09926819
   -0.05201317
   -0.04380424
   -0.03573035
K-point    55  0.05000000 -0.35000000 -0.25000000  0.00800000
Spin component 1
   -0.43259573
   -0.41304818
   -0.32400951
   -0.26923940
   -0.14488687
   -0.13066763
   -0.12089193
   -0.07741371
   -0.06613540
   -0.05650424
   -0.04256837
   -0.04063284
K-point    56  0.05000000 -0.35000000 -0.15000000  0.00800000
Spin component 1
   -0.45663240
   -0.43689671
   -0.34671703
   -0.29090831
   -0.13697344
   -0.07785421
   -0.06344382
   -0.05352244
   -0.04999922
   -0.04229300
   -0.02696477
   -0.02472292
K-point    57  0.05000000 -0.35000000 -0.05000000  0.00800000
Spin component 1
   -0.46868541
   -0.44886342
   -0.35815953
   -0.30188053
   -0.14545323
   -0.08435308
   -0.05456103
   -0.04434677
   -0.00931127
    0.00263800
    0.00604018
    0.00857174
K-point    58  0.05000000 -0.35000000  0.45000000  0.00800000
Spin component 1
   -0.34932127
   -0.33060580
   -0.29083110
   -0.27293549
   -0.24681987
   -0.19702058
   -0.19454882
   -0.15006366
   -0.07576939
   -0.05568569
   -0.03979308
   -0.03388781
K-point    59  0.05000000 -0.25000000 -0.45000000  0.00800000
Spin component 1
   -0.35308966
   -0.32195424
   -0.29444747
   -0.26470081
   -0.26186757
   -0.20836308
   -0.17928307
   -0.13480314
   -0.09121507
   -0.06609803
   -0.03217240
   -0.02974039
K-point    60  0.05000000 -0.25000000 -0.35000000  0.00800000
Spin component 1
   -0.40060084
   -0.36859447
   -0.30623410
   -0.22547955
   -0.21833589
   -0.19802389
   -0.14804386
   -0.11822308
   -0.08974854
   -0.04846410
   -0.04121865
   -0.03448428
K-point    61  0.05000000 -0.25000000 -0.25000000  0.00800000
Spin component 1
   -0.43652103
   -0.40397642
   -0.34023369
   -0.24920613
   -0.14782763
   -0.14200532
   -0.12432856
   -0.08546530
   -0.05301406
   -0.05127042
   -0.04323141
   -0.04048448
K-point    62  0.05000000 -0.25000000 -0.15000000  0.00800000
Spin component 1
   -0.46059310
   -0.42773203
   -0.36319069
   -0.27040446
   -0.15929045
   -0.06559666
   -0.06330436
   -0.05170760
   -0.04939089
   -0.03916903
   -0.02949347
   -0.02577519
K-point    63  0.05000000 -0.25000000 -0.05000000  0.00800000
Spin component 1
   -0.47266189
   -0.43965463
   -0.37474677
   -0.28116571
   -0.16830751
   -0.06914237
   -0.05671781
   -0.03989930
   -0.01422962
    0.00532225
    0.00535837
    0.00919885
K-point    64  0.05000000 -0.15000000 -0.45000000  0.00800000
Spin component 1
   -0.35560728
   -0.31213242
   -0.29686514
   -0.27598390
   -0.25538350
   -0.22144485
   -0.16125835
   -0.11969163
   -0.10782780
   -0.07793051
   -0.02703790
   -0.02703689
K-point    65  0.05000000 -0.15000000 -0.35000000  0.00800000
Spin component 1
   -0.40318168
   -0.35845879
   -0.32097504
   -0.22773519
   -0.19859364
   -0.18955100
   -0.15935245
   -0.13798883
   -0.07930568
   -0.05432798
   -0.03372876
   -0.03372599
K-point    66  0.05000000 -0.15000000 -0.25000000  0.00800000
Spin component 1
   -0.43914225
   -0.39364874
   -0.35534694
   -0.22846488
   -0.16366105
   -0.14980416
   -0.11733442
   -0.09368195
   -0.04711332
   -0.04372320
   -0.04371918
   -0.04088434
K-point    67  0.05000000 -0.15000000 -0.15000000  0.00800000
Spin component 1
   -0.46323575
   -0.41729228
   -0.37851765
   -0.24910747
   -0.18199344
   -0.06706138
   -0.05287383
   -0.05286908
   -0.04506923
   -0.03596859
   -0.03274813
   -0.02759008
K-point    68  0.05000000 -0.15000000 -0.05000000  0.00800000
Spin component 1
   -0.47531518
   -0.42916404
   -0.39017239
   -0.25962324
   -0.19147574
   -0.05817772
   -0.05817263
   -0.03506905
   -0.01940905
    0.00480471
    0.00736969
    0.00950624
K-point    69  0.05000000 -0.05000000 -0.45000000  0.00800000
Spin component 1
   -0.35686750
   -0.30116998
   -0.29807586
   -0.28910380
   -0.24502811
   -0.23369433
   -0.14316516
   -0.12525690
   -0.10499042
   -0.09097707
   -0.02570280
   -0.02444917
K-point    70  0.05000000 -0.05000000 -0.35000000  0.00800000
Spin component 1
   -0.40447317
   -0.34712553
   -0.33461909
   -0.22886612
   -0.18022227
   -0.17846755
   -0.17011983
   -0.15817740
   -0.06981688
   -0.06145494
   -0.03336665
   -0.02989095
K-point    71  0.05000000 -0.05000000 -0.25000000  0.00800000
Spin component 1
   -0.44045436
   -0.38208543
   -0.36930930
   -0.20716010
   -0.18547888
   -0.15079924
   -0.10979631
   -0.10185786
   -0.04404971
   -0.04397855
   -0.04201400
   -0.03889062
K-point    72  0.05000000 -0.05000000 -0.15000000  0.00800000
Spin component 1
   -0.46455853
   -0.40559572
   -0.39266337
   -0.22715226
   -0.20470777
   -0.06780146
   -0.05346186
   -0.04741066
   -0.04072827
   -0.03655639
   -0.03285999
   -0.03000932
K-point    73  0.05000000 -0.05000000 -0.05000000  0.00800000
Spin component 1
   -0.47664210
   -0.41740643
   -0.40440157
   -0.23737727
   -0.21459022
   -0.05890660
   -0.05240915
   -0.02996278
   -0.02469929
    0.00453307
    0.00869042
    0.00937311
K-point    74  0.05000000  0.45000000 -0.45000000  0.00800000
Spin component 1
   -0.34430791
   -0.33806479
   -0.28602719
   -0.28005526
   -0.23092429
   -0.21428238
   -0.18012799
   -0.16523773
   -0.06183727
   -0.04975202
   -0.04682123
   -0.03955912
K-point    75  0.05000000  0.45000000 -0.35000000  0.00800000
Spin component 1
   -0.39158946
   -0.38517581
   -0.27368392
   -0.25601011
   -0.21765275
   -0.21212635
   -0.12446056
   -0.11257026
   -0.08157125
   -0.06563980
   -0.04023195
   -0.03759619
K-point    76  0.05000000  0.45000000 -0.25000000  0.00800000
Spin component 1
   -0.42736975
   -0.42084905
   -0.30672606
   -0.28844364
   -0.14101436
   -0.13625624
   -0.10080312
   -0.08231978
   -0.06975702
   -0.06271875
   -0.04183397
   -0.04113884
K-point    77  0.05000000  0.45000000 -0.15000000  0.00800000
Spin component 1
   -0.45135724
   -0.44477619
   -0.32913929
   -0.31051435
   -0.11552640
   -0.09556128
   -0.06065695
   -0.05731825
   -0.04781148
   -0.04521280
   -0.02529107
   -0.02454114
K-point    78  0.05000000  0.45000000 -0.05000000  0.00800000
Spin component 1
   -0.46338892
   -0.45677866
   -0.34045033
   -0.32166864
   -0.12339143
   -0.10275646
   -0.05174817
   -0.04832286
   -0.00477587
   -0.00075891
    0.00687844
    0.00775850
K-point    79  0.15000000 -0.45000000 -0.25000000  0.00800000
Spin component 1
   -0.41566436
   -0.40918373
   -0.29600536
   -0.27794257
   -0.13287007
   -0.12850805
   -0.09522043
   -0.07773614
   -0.07773268
   -0.07547620
   -0.07448410
   -0.07038976
K-point    80  0.15000000 -0.45000000 -0.15000000  0.00800000
Spin component 1
   -0.43953194
   -0.43298026
   -0.31806341
   -0.29959776
   -0.10794794
   -0.08865000
   -0.08864598
   -0.08497865
   -0.05547940
   -0.05288593
   -0.04265431
   -0.04005059
K-point    81  0.15000000 -0.45000000 -0.05000000  0.00800000
Spin component 1
   -0.45150543
   -0.44492131
   -0.32921617
   -0.31057266
   -0.11498620
   -0.09487474
   -0.09487047
   -0.09060967
   -0.03019954
   -0.02334034
    0.00665864
    0.00694285
K-point    82  0.15000000 -0.35000000 -0.35000000  0.00800000
Spin component 1
   -0.38519438
   -0.36612548
   -0.28010994
   -0.22820930
   -0.21222577
   -0.19633846
   -0.13227112
   -0.10244964
   -0.09608589
   -0.06688531
   -0.06543474
   -0.05345014
K-point    83  0.15000000 -0.35000000 -0.25000000  0.00800000
Spin component 1
   -0.42085978
   -0.40142785
   -0.31310256
   -0.25899725
   -0.13644626
   -0.12343293
   -0.11438950
   -0.07968699
   -0.07954632
   -0.07305219
   -0.06741015
   -0.06256744
K-point    84  0.15000000 -0.35000000 -0.15000000  0.00800000
Spin component 1
   -0.44478280
   -0.42513772
   -0.33550235
   -0.28017917
   -0.12878688
   -0.09167019
   -0.08074115
   -0.07163184
   -0.05770169
   -0.05004931
   -0.04616174
   -0.03846099
K-point    85  0.15000000 -0.35000000 -0.05000000  0.00800000
Spin component 1
   -0.45678225
   -0.43703780
   -0.34680945
   -0.29094244
   -0.13656427
   -0.09833809
   -0.08561200
   -0.07700522
   -0.03743171
   -0.01701855
    0.00602520
    0.00701105
K-point    86  0.15000000 -0.25000000 -0.35000000  0.00800000
Spin component 1
   -0.38902960
   -0.35729529
   -0.29565651
   -0.21547517
   -0.20951161
   -0.18914601
   -0.14269548
   -0.11369974
   -0.09385152
   -0.06856969
   -0.06551297
   -0.04404410
K-point    87  0.15000000 -0.25000000 -0.25000000  0.00800000
Spin component 1
   -0.42476419
   -0.39241396
   -0.32917014
   -0.23927265
   -0.13917443
   -0.13468452
   -0.11774571
   -0.08537575
   -0.08124075
   -0.07062167
   -0.06561096
   -0.05039029
K-point    88  0.15000000 -0.25000000 -0.15000000  0.00800000
Spin component 1
   -0.44872635
   -0.41601704
   -0.35185904
   -0.25989394
   -0.15056063
   -0.09398927
   -0.07603417
   -0.05945159
   -0.05772868
   -0.05042663
   -0.04711884
   -0.03791302
K-point    89  0.15000000 -0.25000000 -0.05000000  0.00800000
Spin component 1
   -0.46074477
   -0.42786968
   -0.36329494
   -0.27040748
   -0.15899035
   -0.10097660
   -0.07994132
   -0.06230590
   -0.04488672
   -0.01136305
    0.00491861
    0.00696187
K-point    90  0.15000000 -0.25000000  0.45000000  0.00800000
Spin component 1
   -0.34181919
   -0.31109085
   -0.28365509
   -0.25456450
   -0.25214661
   -0.20017635
   -0.17253550
   -0.13195001
   -0.09187588
   -0.07527759
   -0.05126998
   -0.04343270
K-point    91  0.15000000 -0.15000000 -0.45000000  0.00800000
Spin component 1
   -0.34430778
   -0.30141824
   -0.28602707
   -0.26594335
   -0.24549446
   -0.21269477
   -0.15553410
   -0.11865876
   -0.10652527
   -0.08420862
   -0.04975053
   -0.03955947
K-point    92  0.15000000 -0.15000000 -0.35000000  0.00800000
Spin component 1
   -0.39158933
   -0.34725857
   -0.31020063
   -0.21765265
   -0.19035131
   -0.18111306
   -0.15296964
   -0.13229441
   -0.08631925
   -0.07121113
   -0.06563691
   -0.03759838
K-point    93  0.15000000 -0.15000000 -0.25000000  0.00800000
Spin component 1
   -0.42736961
   -0.38215588
   -0.34414919
   -0.21889091
   -0.15563231
   -0.14101429
   -0.11156671
   -0.09173464
   -0.08231601
   -0.06838044
   -0.06495705
   -0.04183757
K-point    94  0.15000000 -0.15000000 -0.15000000  0.00800000
Spin component 1
   -0.45135711
   -0.40563178
   -0.36708518
   -0.23885230
   -0.17278804
   -0.09555702
   -0.07097492
   -0.06065694
   -0.05523743
   -0.04781593
   -0.04428212
   -0.03836458
K-point    95  0.15000000 -0.15000000 -0.05000000  0.00800000
Spin component 1
   -0.46338878
   -0.41742608
   -0.37863250
   -0.24907304
   -0.18178040
   -0.10275198
   -0.07367617
   -0.05238735
   -0.05175300
   -0.00647997
    0.00321238
    0.00687835
K-point    96  0.15000000 -0.05000000 -0.45000000  0.00800000
Spin component 1
   -0.34555456
   -0.29063951
   -0.28721554
   -0.27879620
   -0.23544565
   -0.22448603
   -0.13867184
   -0.12223224
   -0.10609511
   -0.09453527
   -0.04901743
   -0.03763896
K-point    97  0.15000000 -0.05000000 -0.35000000  0.00800000
Spin component 1
   -0.39287109
   -0.33604234
   -0.32367750
   -0.21874651
   -0.17232917
   -0.17093096
   -0.16290284
   -0.15148254
   -0.08000330
   -0.07497912
   -0.06571914
   -0.03432624
K-point    98  0.15000000 -0.05000000 -0.25000000  0.00800000
Spin component 1
   -0.42867331
   -0.37067382
   -0.35799526
   -0.19801703
   -0.17684976
   -0.14194210
   -0.10504452
   -0.09836525
   -0.08286346
   -0.06653987
   -0.06532718
   -0.03742478
K-point    99  0.15000000 -0.05000000 -0.15000000  0.00800000
Spin component 1
   -0.45267337
   -0.39399920
   -0.38114279
   -0.21719611
   -0.19509951
   -0.09634825
   -0.06570561
   -0.06127329
   -0.06039764
   -0.04264283
   -0.04173756
   -0.03969596
K-point   100  0.15000000 -0.05000000 -0.05000000  0.00800000
Spin component 1
   -0.46471303
   -0.40572548
   -0.39278518
   -0.22707138
   -0.20456881
   -0.10364418
   -0.06692061
   -0.05977989
   -0.04621754
   -0.00242626
    0.00078932
    0.00682655
K-point   101  0.15000000  0.35000000 -0.45000000  0.00800000
Spin component 1
   -0.33809393
   -0.31962075
   -0.28010936
   -0.26259840
   -0.23748770
   -0.18942366
   -0.18705134
   -0.14569089
   -0.07859410
   -0.06781584
   -0.05368490
   -0.04929092
K-point   102  0.25000000 -0.25000000 -0.45000000  0.00800000
Spin component 1
   -0.31952955
   -0.28972957
   -0.26243286
   -0.23487046
   -0.23343661
   -0.18512461
   -0.16092081
   -0.12960687
   -0.09706489
   -0.09706419
   -0.09124440
   -0.06800183
K-point   103  0.35000000 -0.45000000  0.15000000  0.00800000
Spin component 1
   -0.38114211
   -0.37476897
   -0.26416996
   -0.24668454
   -0.21719353
   -0.21173466
   -0.12494810
   -0.11312461
   -0.07572703
   -0.06040044
   -0.04201042
   -0.03969627
K-point   104  0.35000000 -0.35000000 -0.35000000  0.00800000
Spin component 1
   -0.32852685
   -0.31045326
   -0.23117662
   -0.18625640
   -0.17422211
   -0.16604702
   -0.16237664
   -0.15483434
   -0.12879331
   -0.12673621
   -0.09416106
   -0.07528520
K-point   105  0.35000000 -0.35000000  0.15000000  0.00800000
Spin component 1
   -0.38625370
   -0.36714836
   -0.28077448
   -0.22841308
   -0.22159869
   -0.20525710
   -0.13675974
   -0.10151761
   -0.09283947
   -0.04736729
   -0.04527347
   -0.03813042
K-point   106  0.35000000 -0.25000000 -0.15000000  0.00800000
Spin component 1
   -0.39009605
   -0.35829627
   -0.29641608
   -0.22492409
   -0.20947668
   -0.19780395
   -0.14835463
   -0.11125721
   -0.09038744
   -0.04966538
   -0.03713610
   -0.03710179
K-point   107  0.35000000 -0.25000000  0.45000000  0.00800000
Spin component 1
   -0.28680045
   -0.25870897
   -0.23162166
   -0.20752195
   -0.20698769
   -0.16643940
   -0.14886816
   -0.14209121
   -0.13420515
   -0.13240059
   -0.11250079
   -0.10510910
K-point   108  0.35000000 -0.15000000 -0.45000000  0.00800000
Spin component 1
   -0.28910309
   -0.25003070
   -0.23369370
   -0.21908969
   -0.19964834
   -0.17492611
   -0.14316328
   -0.13886440
   -0.13145563
   -0.13083142
   -0.11690156
   -0.10498933
K-point   109  0.35000000 -0.15000000 -0.35000000  0.00800000
Spin component 1
   -0.33461832
   -0.29270933
   -0.25838443
   -0.17846521
   -0.17011935
   -0.15581402
   -0.15199993
   -0.14529366
   -0.13630942
   -0.13189526
   -0.11491257
   -0.06981702
K-point   110  0.35000000 -0.05000000 -0.45000000  0.00800000
Spin component 1
   -0.29025638
   -0.24046963
   -0.23473331
   -0.23012011
   -0.19174752
   -0.18344112
   -0.14371677
   -0.13009869
   -0.13009825
   -0.12997330
   -0.12275178
   -0.10495716
K-point   111  0.45000000 -0.45000000 -0.25000000  0.00800000
Spin component 1
   -0.31310138
   -0.30709093
   -0.25899547
   -0.25337963
   -0.20627972
   -0.19123782
   -0.16367660
   -0.15145333
   -0.08137297
   -0.07954647
   -0.07402260
   -0.06741100
K-point   112  0.45000000 -0.35000000 -0.35000000  0.00800000
Spin component 1
   -0.28468656
   -0.26770053
   -0.23231445
   -0.21720296
   -0.19626304
   -0.15976521
   -0.15976482
   -0.13768743
   -0.13396977
   -0.12859590
   -0.10631983
   -0.10158282
K-point   113  0.45000000 -0.35000000 -0.25000000  0.00800000
Spin component 1
   -0.31793671
   -0.29992442
   -0.26352741
   -0.24670878
   -0.22085310
   -0.17590614
   -0.17590561
   -0.13949503
   -0.08411945
   -0.08229665
   -0.07841168
   -0.06238258
K-point   114  0.45000000 -0.35000000 -0.15000000  0.00800000
Spin component 1
   -0.34047685
   -0.32190881
   -0.28493262
   -0.26722539
   -0.23891801
   -0.18973625
   -0.18973565
   -0.14583947
   -0.07111056
   -0.05367911
   -0.03671858
   -0.03320798
K-point   115  0.45000000 -0.15000000  0.05000000  0.00800000
Spin component 1
   -0.35815817
   -0.31443776
   -0.30187850
   -0.27795255
   -0.25988963
   -0.22522121
   -0.16032607
   -0.11721156
   -0.10340790
   -0.06845453
   -0.00931389
    0.00263635
K-point   116  0.45000000 -0.15000000  0.15000000  0.00800000
Spin component 1
   -0.34671568
   -0.30359148
   -0.29090631
   -0.26778086
   -0.24986077
   -0.21630355
   -0.15452805
   -0.11594129
   -0.10221028
   -0.07511462
   -0.02696562
   -0.02472474
K-point   117  0.45000000  0.05000000 -0.25000000  0.00800000
Spin component 1
   -0.32522679
   -0.27180293
   -0.27038528
   -0.26037129
   -0.22086535
   -0.21053784
   -0.13055716
   -0.11660611
   -0.10806808
   -0.09994046
   -0.07726979
   -0.05539018
K-point   118  0.45000000  0.05000000  0.15000000  0.00800000
Spin component 1
   -0.34796535
   -0.29272606
   -0.29210579
   -0.28077395
   -0.23962000
   -0.22841193
   -0.13676096
   -0.11922374
   -0.10151817
   -0.08781577
   -0.02576954
   -0.02231046
K-point   119  0.45000000  0.15000000 -0.45000000  0.00800000
Spin component 1
   -0.24681874
   -0.21220372
   -0.19701901
   -0.19454787
   -0.18679722
   -0.17046216
   -0.16847015
   -0.15507600
   -0.15375525
   -0.15006249
   -0.14019112
   -0.13846327
K-point   120  0.45000000  0.15000000  0.35000000  0.00800000
Spin component 1
   -0.29044978
   -0.25122095
   -0.23752216
   -0.22004895
   -0.20293472
   -0.17740220
   -0.13801529
   -0.13635161
   -0.12895133
   -0.12602852
   -0.11465956
   -0.10091972
K-point   121  0.45000000  0.25000000 -0.15000000  0.00800000
Spin component 1
   -0.34421843
   -0.31332995
   -0.28851273
   -0.25907762
   -0.25380595
   -0.20337906
   -0.17226238
   -0.13080286
   -0.08605646
   -0.06366759
   -0.02954037
   -0.02941429
K-point   122  0.45000000  0.25000000  0.25000000  0.00800000
Spin component 1
   -0.32157569
   -0.29162807
   -0.26694680
   -0.23902706
   -0.23480471
   -0.18791402
   -0.16050706
   -0.12808602
   -0.09223480
   -0.08801696
   -0.07775808
   -0.05879698
K-point   123  0.45000000  0.35000000 -0.05000000  0.00800000
Spin component 1
   -0.35184459
   -0.33303364
   -0.29579099
   -0.27769830
   -0.24837068
   -0.19743168
   -0.19743105
   -0.15046704
   -0.06776908
   -0.03983916
   -0.02534037
   -0.00837721
K-point   124  0.45000000  0.35000000  0.45000000  0.00800000
Spin component 1
   -0.24159995
   -0.22646671
   -0.19274037
   -0.19032506
   -0.18082821
   -0.17859498
   -0.16940954
   -0.14813326
   -0.14813311
   -0.14752034
   -0.14751598
   -0.14162452
K-point   125  0.45000000  0.45000000 -0.45000000  0.00800000
Spin component 1
   -0.23748670
   -0.23242183
   -0.18942227
   -0.18705054
   -0.18541647
   -0.18310458
   -0.16137660
   -0.15418895
   -0.14648486
   -0.14627588
   -0.14568994
   -0.14366610
